time(s),F1,F2,F3,F4,F5,F6,F7,F8,F9,F10
10.0,3.087500000000091,0.1375000000000454,-0.1162500000000363,14.887500000000044,0.6649999999999636,-0.1050000000000181,0.0837500000000091,15.783750000000056,7.978749999999991,12.738749999999982
10.1,3.087500000000091,0.1375000000000454,-0.2412500000000363,15.012500000000044,0.5399999999999636,-0.1050000000000181,-0.0412499999999909,15.908750000000056,8.228749999999991,12.863749999999982
10.2,3.087500000000091,0.1375000000000454,-0.3662500000000364,15.012500000000044,0.5399999999999636,-0.1050000000000181,0.0837500000000091,15.908750000000056,8.478749999999991,13.113749999999982
10.3,3.212500000000091,0.2625000000000455,-0.3662500000000364,15.012500000000044,0.5399999999999636,-0.1050000000000181,0.0837500000000091,15.908750000000056,8.728749999999991,13.363749999999982
10.4,3.212500000000091,0.2625000000000455,-0.4912500000000364,15.137500000000044,0.4149999999999636,-0.1050000000000181,0.0837500000000091,16.033750000000055,8.978749999999991,13.613749999999982
10.5,3.337500000000091,0.2625000000000455,-0.4912500000000364,15.137500000000044,0.4149999999999636,-0.1050000000000181,0.2087500000000091,16.033750000000055,9.228749999999993,13.863749999999982
10.6,3.337500000000091,0.2625000000000455,-0.6162500000000364,15.137500000000044,0.4149999999999636,-0.1050000000000181,0.0837500000000091,16.158750000000055,9.478749999999993,14.363749999999982
10.7,3.462500000000091,0.3875000000000455,-0.7412500000000364,15.262500000000044,0.4149999999999636,-0.1050000000000181,0.2087500000000091,16.283750000000055,9.728749999999993,15.613749999999982
10.8,3.587500000000091,0.3875000000000455,-0.7412500000000364,15.262500000000044,0.4149999999999636,0.0199999999999818,0.2087500000000091,16.283750000000055,9.978749999999993,18.488749999999985
10.9,3.962500000000091,0.2625000000000455,-0.8662500000000364,15.387500000000044,0.9149999999999636,0.2699999999999818,0.3337500000000091,16.408750000000055,10.353749999999993,24.488749999999985
11.0,4.587500000000091,0.2625000000000455,-0.8662500000000364,15.637500000000044,1.7899999999999636,0.8949999999999818,0.3337500000000091,16.783750000000055,10.728749999999993,35.11374999999998
11.1,5.587500000000091,0.3875000000000455,-0.8662500000000364,16.637500000000045,3.789999999999964,2.144999999999982,0.4587500000000091,17.533750000000055,11.478749999999993,52.36374999999998
11.2,7.087500000000091,0.3875000000000455,-0.9912500000000364,18.637500000000045,7.289999999999964,4.894999999999982,0.7087500000000091,19.28375000000005,13.478749999999993,77.98874999999998
11.3,9.212500000000093,0.3875000000000455,-0.9912500000000364,22.762500000000045,12.789999999999964,9.644999999999982,0.9587500000000092,22.90875000000005,17.72874999999999,116.11374999999998
11.4,12.337500000000093,0.6375000000000455,-0.9912500000000364,29.637500000000045,20.289999999999964,16.894999999999982,1.083750000000009,29.40875000000005,25.97874999999999,170.48874999999998
11.5,16.33750000000009,0.6375000000000455,-0.9912500000000364,40.637500000000045,29.539999999999964,26.144999999999985,1.333750000000009,40.783750000000055,39.47874999999999,240.73875
11.6,21.33750000000009,1.0125000000000457,-0.9912500000000364,56.762500000000045,41.16499999999997,37.14499999999998,1.833750000000009,58.783750000000055,59.60374999999999,326.73875
11.7,27.58750000000009,1.3875000000000457,-1.1162500000000364,78.76250000000005,55.28999999999997,49.89499999999998,2.083750000000009,85.53375000000005,87.35374999999999,426.36375
11.8,34.83750000000009,1.7625000000000457,-1.1162500000000364,107.01250000000005,71.91499999999996,64.14499999999998,2.583750000000009,121.65875000000004,122.72875,536.86375
11.9,43.46250000000009,2.387500000000045,-1.1162500000000364,142.51250000000005,91.03999999999996,80.51999999999998,3.083750000000009,169.28375000000003,166.47875,657.98875
12.0,53.33750000000009,3.012500000000045,-1.1162500000000364,185.26250000000005,112.91499999999996,98.51999999999998,3.583750000000009,229.53375000000003,217.60375,784.61375
12.1,64.33750000000009,3.6375000000000455,-1.1162500000000364,235.01250000000005,137.03999999999996,117.89499999999998,3.958750000000009,302.53375000000005,274.72875,910.23875
12.2,76.71250000000009,4.3875000000000455,-1.1162500000000364,292.76250000000005,164.28999999999996,139.26999999999998,4.458750000000009,390.78375000000005,337.85375,1035.23875
12.3,90.46250000000008,5.2625000000000455,-1.1162500000000364,357.88750000000005,194.54,162.01999999999998,4.958750000000009,493.53375000000005,404.85375,1155.98875
12.4,105.08750000000008,6.1375000000000455,-1.1162500000000364,428.7625000000001,227.04,185.77,5.333750000000009,608.53375,473.72875,1268.36375
12.5,121.21250000000008,7.1375000000000455,-1.1162500000000364,506.0125000000001,262.165,210.645,5.833750000000009,736.28375,544.72875,1373.23875
12.6,138.3375000000001,8.137500000000045,-1.1162500000000364,586.3875,299.04,236.27,6.208750000000009,871.65875,615.47875,1468.36375
12.7,156.7125000000001,9.137500000000044,-1.1162500000000364,670.0125,337.79,262.895,6.833750000000009,1014.15875,686.72875,1555.86375
12.8,176.0875000000001,10.387500000000044,-1.1162500000000364,754.5125,377.79,290.02,7.458750000000009,1158.28375,757.22875,1635.23875
12.9,196.2125000000001,11.512500000000044,-1.1162500000000364,837.1375,418.415,317.02,7.833750000000009,1299.03375,825.60375,1706.73875
13.0,217.5875000000001,12.887500000000044,-1.1162500000000364,918.2625,459.915,344.395,8.333750000000009,1435.78375,892.85375,1772.48875
13.1,239.7125000000001,14.137500000000044,-1.1162500000000364,995.7625,501.665,371.395,8.833750000000009,1564.03375,957.60375,1831.36375
13.2,262.3375000000001,15.512500000000044,-1.1162500000000364,1068.1375,542.915,397.77,9.333750000000007,1680.65875,1018.97875,1882.86375
13.3,286.2125000000001,17.012500000000045,-1.1162500000000364,1136.2625,584.165,423.895,9.833750000000007,1786.90875,1077.97875,1928.73875
13.4,310.5875000000001,18.512500000000045,-1.1162500000000364,1199.1375,624.79,449.27,10.208750000000007,1881.15875,1133.85375,1969.23875
13.5,335.3375000000001,19.887500000000045,-0.9912500000000364,1256.0125,664.415,473.77,10.833750000000007,1963.28375,1186.10375,2004.98875
13.6,360.9625000000001,21.512500000000045,-1.1162500000000364,1308.3875,703.415,497.395,11.083750000000007,2035.53375,1235.72875,2037.86375
13.7,386.9625000000001,23.137500000000045,-0.9912500000000364,1355.7625,741.415,520.395,11.708750000000007,2098.15875,1282.35375,2067.73875
13.8,413.2125000000001,24.762500000000045,-0.9912500000000364,1398.1375,777.54,542.02,12.208750000000007,2151.78375,1325.35375,2094.48875
13.9,439.9625000000001,26.512500000000045,-0.9912500000000364,1436.7625,812.79,563.02,12.583750000000007,2198.53375,1365.97875,2118.61375
14.0,467.0875000000001,28.137500000000045,-0.9912500000000364,1471.6375,846.29,583.02,12.958750000000007,2238.90875,1403.72875,2140.61375
14.1,494.0875000000001,30.012500000000045,-0.9912500000000364,1502.6375,878.04,601.895,13.333750000000007,2273.78375,1438.47875,2160.61375
14.2,521.4625000000001,31.637500000000045,-0.8662500000000364,1531.0125,908.29,619.77,13.708750000000007,2304.40875,1471.10375,2179.23875
14.3,548.9625000000001,33.637500000000045,-0.8662500000000364,1556.7625,936.915,636.77,14.208750000000007,2331.15875,1501.35375,2195.98875
14.4,576.0875000000001,35.387500000000045,-0.8662500000000364,1579.7625,963.665,652.52,14.583750000000007,2354.28375,1529.10375,2210.98875
14.5,603.5875000000001,37.262500000000045,-0.8662500000000364,1601.0125,989.04,667.645,15.083750000000007,2374.90875,1555.10375,2224.86375
14.6,630.8375000000001,39.137500000000045,-0.8662500000000364,1620.2625,1012.79,681.77,15.333750000000007,2392.90875,1579.22875,2237.36375
14.7,657.8375000000001,41.137500000000045,-0.7412500000000364,1637.7625,1035.04,694.895,15.583750000000007,2408.78375,1601.47875,2248.48875
14.8,684.8375000000001,43.137500000000045,-0.7412500000000364,1653.7625,1055.915,707.145,15.958750000000007,2423.03375,1622.22875,2258.98875
14.9,711.5875000000001,45.137500000000045,-0.6162500000000364,1668.3875,1075.54,718.77,16.45875000000001,2435.65875,1641.35375,2268.86375
15.0,737.8375000000001,47.137500000000045,-0.6162500000000364,1681.7625,1093.665,729.395,16.70875000000001,2446.78375,1659.10375,2277.73875
15.1,763.9625000000001,49.137500000000045,-0.6162500000000364,1694.1375,1110.79,739.395,17.08375000000001,2456.65875,1675.60375,2285.98875
15.2,789.7125000000001,51.262500000000045,-0.4912500000000364,1705.5125,1126.79,748.645,17.45875000000001,2465.65875,1690.85375,2293.73875
15.3,814.9625000000001,53.262500000000045,-0.4912500000000364,1715.7625,1141.54,757.145,17.70875000000001,2473.65875,1704.97875,2300.86375
15.4,839.9625000000001,55.512500000000045,-0.3662500000000364,1725.3875,1155.29,765.27,17.95875000000001,2480.78375,1718.10375,2307.48875
15.5,864.4625000000001,57.637500000000045,-0.3662500000000364,1734.2625,1168.04,772.52,18.33375000000001,2487.28375,1730.35375,2313.48875
15.6,888.3375000000001,59.762500000000045,-0.2412500000000363,1742.3875,1179.79,779.27,18.58375000000001,2493.03375,1741.60375,2318.98875
15.7,911.9625,61.887500000000045,-0.1162500000000363,1749.8875,1190.79,785.645,18.95875000000001,2498.28375,1752.22875,2323.98875
15.8,934.8375,64.13750000000005,-0.1162500000000363,1756.7625,1200.915,791.395,19.45875000000001,2502.90875,1761.97875,2328.61375
15.9,957.3375,66.26250000000005,-0.1162500000000363,1763.1375,1210.165,796.645,19.58375000000001,2507.15875,1771.10375,2332.86375
16.0,979.3375,68.63750000000005,0.0087499999999636,1769.1375,1218.79,801.52,19.83375000000001,2511.03375,1779.72875,2336.61375
16.1,1000.5875,70.76250000000005,0.0087499999999636,1774.3875,1226.54,805.895,20.20875000000001,2514.40875,1787.47875,2340.23875
16.2,1021.4625,73.01250000000005,0.1337499999999636,1779.5125,1233.79,809.895,20.33375000000001,2517.65875,1794.97875,2343.48875
16.3,1041.7125,75.26250000000005,0.1337499999999636,1784.1375,1240.54,813.52,20.58375000000001,2520.53375,1801.72875,2346.48875
16.4,1061.2125,77.51250000000005,0.2587499999999636,1788.2625,1246.415,816.77,20.95875000000001,2523.03375,1808.22875,2349.23875
16.5,1080.4625,79.76250000000005,0.2587499999999636,1792.2625,1251.915,819.645,21.20875000000001,2525.40875,1814.10375,2351.86375
16.6,1099.0875,82.13750000000005,0.3837499999999636,1795.7625,1256.915,822.27,21.45875000000001,2527.53375,1819.60375,2354.23875
16.7,1116.8375,84.38750000000005,0.5087499999999636,1799.0125,1261.29,824.52,21.58375000000001,2529.40875,1824.85375,2356.48875
16.8,1134.3375,86.63750000000005,0.5087499999999636,1802.0125,1265.29,826.52,21.70875000000001,2531.15875,1829.60375,2358.36375
16.9,1151.2125,89.01250000000005,0.6337499999999636,1804.8875,1268.79,828.27,22.08375000000001,2532.65875,1834.10375,2360.23875
17.0,1167.3375,91.26250000000005,0.6337499999999636,1807.2625,1271.915,829.77,22.33375000000001,2534.03375,1838.22875,2361.98875
17.1,1183.0875,93.63750000000005,0.7587499999999636,1809.5125,1274.665,831.02,22.58375000000001,2535.28375,1842.22875,2363.48875
17.2,1198.3375,96.01250000000005,0.7587499999999636,1811.6375,1276.915,832.145,22.70875000000001,2536.40875,1845.85375,2364.86375
17.3,1212.8375,98.26250000000005,0.8837499999999636,1813.5125,1278.915,832.895,22.95875000000001,2537.40875,1849.22875,2366.11375
17.4,1226.9625,100.51250000000005,1.0087499999999636,1815.1375,1280.54,833.395,23.20875000000001,2538.28375,1852.35375,2367.23875
17.5,1240.4625,102.88750000000005,1.0087499999999636,1816.6375,1281.79,833.895,23.58375000000001,2539.03375,1855.22875,2368.23875
17.6,1253.4625,105.26250000000005,1.1337499999999636,1818.0125,1282.79,834.145,23.58375000000001,2539.78375,1857.97875,2369.23875
17.7,1266.0875,107.63750000000005,1.2587499999999636,1819.1375,1283.415,834.145,23.70875000000001,2540.40875,1860.47875,2370.11375
17.8,1278.2125,109.88750000000005,1.2587499999999636,1820.1375,1283.665,834.145,23.95875000000001,2540.78375,1862.85375,2370.73875
17.9,1289.7125,112.13750000000005,1.3837499999999636,1821.0125,1283.79,833.77,24.33375000000001,2541.28375,1865.10375,2371.36375
18.0,1300.8375,114.63750000000005,1.3837499999999636,1821.7625,1283.415,833.395,24.45875000000001,2541.65875,1867.10375,2371.86375
18.1,1311.5875,116.88750000000005,1.5087499999999636,1822.3875,1282.915,832.895,24.70875000000001,2541.90875,1868.97875,2372.36375
18.2,1321.7125,119.13750000000005,1.6337499999999636,1822.8875,1282.165,832.145,24.83375000000001,2542.15875,1870.72875,2372.73875
18.3,1331.5875,121.51250000000005,1.6337499999999636,1823.2625,1281.165,831.27,24.95875000000001,2542.28375,1872.35375,2372.98875
18.4,1340.9625,123.88750000000005,1.7587499999999636,1823.5125,1280.04,830.27,25.08375000000001,2542.40875,1873.72875,2373.36375
18.5,1349.9625,126.01250000000005,1.7587499999999636,1823.6375,1278.79,829.27,25.45875000000001,2542.40875,1874.97875,2373.48875
18.6,1358.4625,128.38750000000005,1.883749999999964,1823.7625,1277.29,828.02,25.58375000000001,2542.40875,1876.35375,2373.61375
18.7,1366.7125,130.63750000000005,1.883749999999964,1823.7625,1275.665,826.77,25.70875000000001,2542.28375,1877.35375,2373.61375
18.8,1374.5875,132.88750000000005,2.008749999999964,1823.5125,1273.79,825.27,25.83375000000001,2542.28375,1878.47875,2373.61375
18.9,1382.0875,135.38750000000005,2.133749999999964,1823.3875,1271.915,823.77,25.83375000000001,2542.03375,1879.35375,2373.48875
19.0,1389.2125,137.51250000000005,2.133749999999964,1823.0125,1269.665,822.27,25.95875000000001,2541.90875,1880.22875,2373.36375
19.1,1396.0875,139.76250000000005,2.258749999999964,1822.5125,1267.54,820.395,26.20875000000001,2541.65875,1880.85375,2373.11375
19.2,1402.5875,142.01250000000005,2.258749999999964,1822.1375,1265.165,818.645,26.45875000000001,2541.40875,1881.60375,2372.86375
19.3,1408.8375,144.26250000000005,2.383749999999964,1821.5125,1262.79,816.77,26.33375000000001,2541.03375,1882.10375,2372.48875
19.4,1414.7125,146.38750000000005,2.508749999999964,1821.0125,1260.165,814.77,26.58375000000001,2540.78375,1882.60375,2372.11375
19.5,1420.3375,148.63750000000005,2.508749999999964,1820.2625,1257.54,812.645,26.70875000000001,2540.40875,1882.97875,2371.73875
19.6,1425.7125,150.76250000000005,2.633749999999964,1819.5125,1254.665,810.52,26.83375000000001,2539.90875,1883.35375,2371.23875
19.7,1430.7125,153.01250000000005,2.633749999999964,1818.7625,1251.79,808.27,27.08375000000001,2539.53375,1883.60375,2370.73875
19.8,1435.5875,155.26250000000005,2.758749999999964,1817.7625,1248.79,805.895,27.08375000000001,2539.03375,1883.85375,2370.23875
19.9,1440.0875,157.38750000000005,2.758749999999964,1816.8875,1245.665,803.52,27.33375000000001,2538.40875,1883.97875,2369.61375
20.0,1444.4625,159.51250000000005,2.883749999999964,1815.8875,1242.415,801.02,27.45875000000001,2538.03375,1883.97875,2368.98875
20.1,1448.5875,161.76250000000005,2.883749999999964,1814.7625,1238.915,798.395,27.58375000000001,2537.40875,1884.10375,2368.36375
20.2,1452.3375,163.76250000000005,3.008749999999964,1813.6375,1235.415,795.895,27.58375000000001,2536.78375,1883.97875,2367.73875
20.3,1456.0875,166.01250000000005,3.008749999999964,1812.5125,1231.665,793.395,27.70875000000001,2536.15875,1883.97875,2366.98875
20.4,1459.5875,168.01250000000005,3.133749999999964,1811.2625,1227.915,790.77,27.95875000000001,2535.53375,1883.85375,2366.36375
20.5,1462.8375,170.13750000000005,3.133749999999964,1810.0125,1224.04,788.145,27.83375000000001,2534.78375,1883.72875,2365.61375
20.6,1465.8375,172.13750000000005,3.258749999999964,1808.7625,1220.04,785.395,27.83375000000001,2534.15875,1883.60375,2364.86375
20.7,1468.7125,174.26250000000005,3.258749999999964,1807.3875,1216.04,782.77,27.95875000000001,2533.40875,1883.35375,2364.11375
20.8,1471.4625,176.26250000000005,3.383749999999964,1805.8875,1212.04,780.02,27.95875000000001,2532.65875,1883.10375,2363.23875
20.9,1473.9625,178.38750000000005,3.508749999999964,1804.5125,1208.04,777.27,28.08375000000001,2531.90875,1882.72875,2362.48875
21.0,1476.4625,180.38750000000005,3.508749999999964,1803.0125,1203.915,774.52,28.33375000000001,2531.03375,1882.47875,2361.61375
21.1,1478.7125,182.38750000000005,3.508749999999964,1801.3875,1199.79,771.645,28.20875000000001,2530.28375,1882.10375,2360.73875
21.2,1480.7125,184.38750000000005,3.633749999999964,1799.8875,1195.665,768.77,28.33375000000001,2529.40875,1881.60375,2359.73875
21.3,1482.5875,186.38750000000005,3.758749999999964,1798.1375,1191.29,765.77,28.45875000000001,2528.65875,1881.10375,2358.73875
21.4,1484.4625,188.38750000000005,3.758749999999964,1796.5125,1186.915,762.77,28.45875000000001,2527.65875,1880.60375,2357.61375
21.5,1486.0875,190.26250000000005,3.758749999999964,1794.7625,1182.415,759.645,28.58375000000001,2526.78375,1880.10375,2356.61375
21.6,1487.7125,192.26250000000005,3.883749999999964,1793.0125,1177.79,756.52,28.58375000000001,2525.90875,1879.47875,2355.48875
21.7,1489.0875,194.13750000000005,3.883749999999964,1791.1375,1173.165,753.52,28.70875000000001,2524.90875,1878.85375,2354.48875
21.8,1490.3375,195.88750000000005,4.008749999999964,1789.2625,1168.415,750.395,28.83375000000001,2524.03375,1878.22875,2353.36375
21.9,1491.5875,197.88750000000005,4.008749999999964,1787.3875,1163.665,747.395,28.83375000000001,2523.03375,1877.60375,2352.23875
22.0,1492.5875,199.76250000000005,4.008749999999964,1785.5125,1158.79,744.145,28.83375000000001,2522.03375,1876.85375,2351.11375
22.1,1493.5875,201.51250000000005,4.133749999999964,1783.5125,1153.79,741.02,28.95875000000001,2521.15875,1876.22875,2349.86375
22.2,1494.4625,203.38750000000005,4.258749999999964,1781.6375,1148.79,737.895,29.08375000000001,2520.15875,1875.47875,2348.73875
22.3,1495.2125,205.13750000000005,4.258749999999964,1779.6375,1143.665,734.52,29.20875000000001,2519.03375,1874.72875,2347.36375
22.4,1495.9625,206.88750000000005,4.258749999999964,1777.6375,1138.415,731.395,29.20875000000001,2518.03375,1873.85375,2345.98875
22.5,1496.4625,208.63750000000005,4.258749999999964,1775.5125,1133.165,728.145,29.20875000000001,2516.90875,1873.10375,2344.61375
22.6,1496.9625,210.38750000000005,4.383749999999964,1773.3875,1127.915,725.02,29.33375000000001,2515.90875,1872.35375,2343.23875
22.7,1497.3375,212.13750000000005,4.508749999999964,1771.2625,1122.415,721.77,29.33375000000001,2514.78375,1871.47875,2341.73875
22.8,1497.7125,213.88750000000005,4.508749999999964,1769.1375,1117.165,718.52,29.33375000000001,2513.65875,1870.60375,2340.36375
22.9,1497.9625,215.51250000000005,4.508749999999964,1767.0125,1111.79,715.395,29.58375000000001,2512.53375,1869.72875,2338.73875
23.0,1498.0875,217.26250000000005,4.508749999999964,1764.7625,1106.54,712.145,29.45875000000001,2511.40875,1868.85375,2337.23875
23.1,1498.2125,218.88750000000005,4.633749999999964,1762.6375,1101.165,708.895,29.45875000000001,2510.28375,1867.97875,2335.73875
23.2,1498.3375,220.51250000000005,4.633749999999964,1760.2625,1095.79,705.77,29.45875000000001,2509.03375,1866.97875,2334.23875
23.3,1498.3375,222.13750000000005,4.758749999999964,1758.0125,1090.415,702.52,29.45875000000001,2507.90875,1865.97875,2332.61375
23.4,1498.2125,223.63750000000005,4.633749999999964,1755.7625,1085.04,699.145,29.70875000000001,2506.65875,1864.85375,2330.98875
23.5,1498.0875,225.38750000000005,4.758749999999964,1753.3875,1079.54,695.895,29.45875000000001,2505.40875,1863.85375,2329.48875
23.6,1497.8375,226.88750000000005,4.883749999999964,1751.0125,1074.04,692.645,29.58375000000001,2504.15875,1862.85375,2327.73875
23.7,1497.4625,228.38750000000005,4.883749999999964,1748.7625,1068.54,689.395,29.58375000000001,2502.90875,1861.85375,2326.23875
23.8,1497.2125,229.88750000000005,5.008749999999964,1746.3875,1063.04,686.145,29.58375000000001,2501.65875,1860.72875,2324.48875
23.9,1496.8375,231.26250000000005,5.008749999999964,1743.8875,1057.415,682.895,29.45875000000001,2500.40875,1859.60375,2322.73875
24.0,1496.3375,232.88750000000005,5.008749999999964,1741.5125,1051.915,679.52,29.58375000000001,2499.15875,1858.60375,2321.11375
