time(s),F1,F2,F3,F4,F5,F6,F7,F8,F9,F10
10.0,-0.1412499999998999,0.5625,0.1949999999999363,-1.3125,-2.4224999999999,-2.136250000000018,-0.0600000000000022,-1.6800000000000637,-1.5262499999998909,-2.6275000000000546
10.1,-0.1412499999998999,0.5625,0.0699999999999363,-1.4375,-2.5474999999999,-2.511250000000018,-0.0600000000000022,-1.805000000000064,-1.5262499999998909,-2.6275000000000546
10.2,-0.2662499999998999,0.5625,0.0699999999999363,-1.5625,-2.5474999999999,-2.636250000000018,-0.1850000000000022,-1.930000000000064,-1.5262499999998909,-2.6275000000000546
10.3,-0.2662499999998999,0.5625,-0.0550000000000636,-1.5625,-2.5474999999999,-2.761250000000018,-0.0600000000000022,-1.930000000000064,-1.5262499999998909,-2.7525000000000546
10.4,-0.2662499999998999,0.5625,-0.0550000000000636,-1.6875,-2.6724999999999,-2.761250000000018,-0.3100000000000023,-2.055000000000064,-1.5262499999998909,-2.7525000000000546
10.5,-0.2662499999998999,0.5625,-0.0550000000000636,-1.8125,-2.6724999999999,-2.886250000000018,-0.3100000000000023,-2.055000000000064,-1.4012499999998909,-2.7525000000000546
10.6,-0.2662499999998999,0.5625,-0.0550000000000636,-1.8125,-2.6724999999999,-3.011250000000018,-0.3100000000000023,-2.055000000000064,-1.5262499999998909,-2.5025000000000546
10.7,-0.3912499999998999,0.4375,-0.0550000000000636,-1.9375,-2.6724999999999,-3.011250000000018,-0.3100000000000023,-2.180000000000064,-1.5262499999998909,-2.0025000000000546
10.8,-0.2662499999998999,0.4375,-0.0550000000000636,-1.9375,-2.5474999999999,-2.886250000000018,-0.1850000000000022,-2.180000000000064,-1.4012499999998909,-0.8775000000000546
10.9,-0.1412499999998999,0.5625,-0.1800000000000636,-1.8125,-2.2974999999999,-2.636250000000018,-0.3100000000000023,-2.180000000000064,-1.2762499999998909,1.1224999999999454
11.0,-0.0162499999998999,0.4375,-0.1800000000000636,-1.6875,-1.9224999999999,-2.011250000000018,-0.1850000000000022,-2.180000000000064,-1.1512499999998909,4.747499999999945
11.1,0.3587500000001,0.4375,-0.1800000000000636,-1.1875,-1.2974999999999,-1.2612500000000182,-0.1850000000000022,-1.805000000000064,-0.5262499999998909,9.997499999999944
11.2,0.7337500000001,0.4375,-0.1800000000000636,-0.3125,-0.1724999999998999,0.1137499999999818,-0.0600000000000022,-1.0550000000000637,0.5987500000001091,17.622499999999945
11.3,1.3587500000001,0.3125,-0.1800000000000636,1.3125,1.2025000000001,1.8637499999999816,0.0649999999999977,0.3199999999999363,2.598750000000109,28.247499999999945
11.4,2.3587500000001,0.4375,-0.1800000000000636,3.8125,3.0775000000001,4.238749999999982,0.1899999999999977,2.5699999999999363,5.973750000000109,42.372499999999945
11.5,3.4837500000001,0.4375,-0.1800000000000636,7.1875,5.4525000000001,7.113749999999982,0.3149999999999977,6.069999999999936,10.97375000000011,59.747499999999945
11.6,4.7337500000001,0.4375,-0.1800000000000636,11.9375,8.5775000000001,10.613749999999982,0.4399999999999977,11.069999999999936,18.09875000000011,80.87249999999995
11.7,6.4837500000001,0.5625,-0.1800000000000636,18.1875,12.2025000000001,14.738749999999982,0.6899999999999977,18.069999999999936,27.34875000000011,106.12249999999996
11.8,8.3587500000001,0.5625,-0.1800000000000636,25.8125,16.4525000000001,19.238749999999985,0.8149999999999977,27.069999999999936,38.59875000000011,135.74749999999997
11.9,10.4837500000001,0.5625,-0.1800000000000636,35.3125,21.4525000000001,24.238749999999985,0.9399999999999976,38.819999999999936,52.09875000000011,170.74749999999997
12.0,13.1087500000001,0.6875,-0.1800000000000636,46.6875,27.0775000000001,29.613749999999985,1.0649999999999975,53.319999999999936,67.47375000000011,210.62249999999997
12.1,15.8587500000001,0.8125,-0.0550000000000636,59.9375,33.0775000000001,35.36374999999998,1.1899999999999975,70.31999999999994,84.59875000000011,254.87249999999997
12.2,18.9837500000001,0.8125,-0.1800000000000636,75.4375,39.8275000000001,41.48874999999998,1.3149999999999975,90.56999999999994,103.47375000000012,304.87249999999995
12.3,22.3587500000001,0.9375,-0.1800000000000636,92.9375,46.9525000000001,47.98874999999998,1.5649999999999975,113.81999999999994,123.97375000000012,360.6225
12.4,26.1087500000001,1.1875,-0.0550000000000636,112.3125,54.5775000000001,54.61374999999998,1.6899999999999975,140.06999999999994,145.9737500000001,420.9975
12.5,30.1087500000001,1.3125,-0.0550000000000636,134.0625,62.7025000000001,61.73874999999998,1.9399999999999975,169.81999999999994,169.4737500000001,485.3725
12.6,34.4837500000001,1.5625,-0.0550000000000636,157.8125,71.3275000000001,68.98874999999998,2.1899999999999977,203.06999999999996,194.4737500000001,551.8725
12.7,39.1087500000001,1.6875,-0.0550000000000636,183.4375,80.2025000000001,76.48874999999998,2.3149999999999977,239.56999999999996,220.3487500000001,618.4975
12.8,44.1087500000001,1.9375,-0.0550000000000636,211.3125,89.4525000000001,84.23874999999998,2.5649999999999977,279.69499999999994,247.5987500000001,686.1225
12.9,49.3587500000001,2.1875,-0.0550000000000636,241.0625,99.2025000000001,92.23874999999998,2.8149999999999977,323.31999999999994,275.5987500000001,753.7475
13.0,54.8587500000001,2.4375,-0.0550000000000636,272.0625,109.2025000000001,100.36374999999998,2.8149999999999977,369.57,303.8487500000001,819.9975
13.1,60.7337500000001,2.6875,-0.0550000000000636,305.0625,119.5775000000001,108.61374999999998,3.1899999999999977,419.57,332.7237500000001,885.1225
13.2,66.7337500000001,3.0625,-0.0550000000000636,339.0625,130.0775000000001,116.98874999999998,3.0649999999999977,471.945,361.5987500000001,947.2475
13.3,73.2337500000001,3.4375,0.0699999999999363,374.6875,140.8275000000001,125.36374999999998,3.3149999999999977,527.4449999999999,390.9737500000001,1007.4975
13.4,79.7337500000001,3.6875,-0.0550000000000636,411.3125,151.8275000000001,133.86374999999998,3.6899999999999977,585.0699999999999,420.4737500000001,1065.2475
13.5,86.6087500000001,3.9375,0.0699999999999363,448.3125,162.9525000000001,142.23874999999998,3.6899999999999977,644.0699999999999,449.4737500000001,1119.9975
13.6,93.7337500000001,4.3125,0.0699999999999363,486.4375,174.2025000000001,150.73874999999998,3.8149999999999977,705.1949999999999,478.5987500000001,1172.8725
13.7,101.1087500000001,4.6875,0.0699999999999363,524.8125,185.5775000000001,159.11374999999998,4.064999999999998,767.5699999999999,507.7237500000001,1222.9975
13.8,108.6087500000001,5.0625,0.0699999999999363,562.8125,196.9525000000001,167.48874999999998,4.189999999999998,829.9449999999999,536.0987500000001,1269.8725
13.9,116.3587500000001,5.5625,0.0699999999999363,601.3125,208.4525000000001,175.86374999999998,4.439999999999998,893.4449999999999,564.4737500000001,1314.4975
14.0,124.3587500000001,5.9375,0.0699999999999363,639.4375,220.0775000000001,184.11375,4.689999999999998,957.195,592.3487500000001,1356.4975
14.1,132.4837500000001,6.3125,0.0699999999999363,676.6875,231.5775000000001,192.23875,4.689999999999998,1019.695,619.5987500000001,1394.9975
14.2,140.8587500000001,6.6875,0.1949999999999363,713.6875,243.2025000000001,200.23875,4.939999999999998,1082.195,646.4737500000001,1430.8725
14.3,149.4837500000001,7.1875,0.1949999999999363,749.9375,254.8275000000001,207.48875,4.939999999999998,1143.57,672.8487500000001,1464.4975
14.4,158.1087500000001,7.5625,0.1949999999999363,784.6875,266.0775000000001,214.23875,4.814999999999998,1203.07,698.3487500000001,1495.7475
14.5,166.9837500000001,8.0625,0.1949999999999363,818.9375,277.4525000000001,221.11375,4.689999999999998,1261.695,723.4737500000001,1525.4975
14.6,175.9837500000001,8.5625,0.1949999999999363,851.9375,288.8275000000001,228.23875,4.939999999999998,1318.445,747.8487500000001,1553.3725
14.7,185.1087500000001,9.0625,0.3199999999999363,883.4375,299.8275000000001,235.61375,4.939999999999998,1372.695,771.4737500000001,1579.1225
14.8,194.3587500000001,9.4375,0.1949999999999363,913.9375,310.9525000000001,242.86375,5.189999999999998,1425.445,794.7237500000001,1603.4975
14.9,203.8587500000001,9.9375,0.1949999999999363,943.1875,321.8275000000001,249.86375,5.189999999999998,1476.07,817.2237500000001,1626.3725
15.0,213.3587500000001,10.4375,0.3199999999999363,970.9375,332.3275000000001,256.73875,5.439999999999998,1523.82,838.8487500000001,1647.4975
15.1,222.9837500000001,10.9375,0.3199999999999363,997.5625,342.8275000000001,263.61375,5.439999999999998,1569.82,860.0987500000001,1667.4975
15.2,232.7337500000001,11.4375,0.3199999999999363,1022.9375,353.0775000000001,270.11375,5.564999999999998,1613.57,880.5987500000001,1686.4975
15.3,242.4837500000001,11.9375,0.3199999999999363,1046.8125,363.0775000000001,276.48875,5.814999999999998,1654.445,900.3487500000001,1704.2475
15.4,252.3587500000001,12.4375,0.3199999999999363,1069.6875,372.8275000000001,282.61375,5.814999999999998,1693.445,919.72375,1720.9975
15.5,262.3587500000001,13.0625,0.4449999999999363,1091.4375,382.4525000000001,288.61375,6.064999999999998,1730.32,938.34875,1736.9975
15.6,272.3587500000001,13.4375,0.4449999999999363,1111.8125,391.8275000000001,294.36375,6.064999999999998,1764.57,956.34875,1751.8725
15.7,282.4837500000001,14.0625,0.4449999999999363,1131.3125,400.9525000000001,299.98875,6.314999999999998,1797.195,973.84875,1765.9975
15.8,292.7337500000001,14.5625,0.4449999999999363,1149.8125,409.8275000000001,305.48875,6.439999999999998,1827.82,990.72375,1779.2475
15.9,302.8587500000001,15.0625,0.4449999999999363,1167.0625,418.4525000000001,310.73875,6.314999999999998,1856.32,1006.97375,1791.6225
16.0,313.1087500000001,15.6875,0.5699999999999363,1183.5625,426.9525000000001,315.73875,6.689999999999998,1883.32,1022.72375,1803.4975
16.1,323.4837500000001,16.3125,0.4449999999999363,1199.1875,435.0775000000001,320.61375,6.814999999999998,1908.695,1038.09875,1814.7475
16.2,333.7337500000001,16.9375,0.5699999999999363,1213.8125,442.9525000000001,325.23875,6.814999999999998,1932.32,1052.72375,1825.2475
16.3,344.1087500000001,17.5625,0.5699999999999363,1227.6875,450.5775000000001,329.73875,6.939999999999998,1954.695,1066.97375,1835.3725
16.4,354.3587500000001,18.0625,0.5699999999999363,1240.6875,457.9525000000001,334.11375,7.064999999999998,1975.57,1080.59875,1844.8725
16.5,364.7337500000001,18.6875,0.6949999999999363,1253.0625,465.0775000000001,338.36375,7.189999999999998,1995.32,1093.84875,1853.8725
16.6,375.1087500000001,19.3125,0.6949999999999363,1264.8125,471.9525000000001,342.36375,7.439999999999998,2013.82,1106.72375,1862.4975
16.7,385.3587500000001,19.9375,0.6949999999999363,1275.8125,478.4525000000001,346.11375,7.439999999999998,2031.07,1118.97375,1870.6225
16.8,395.7337500000001,20.5625,0.6949999999999363,1286.1875,484.9525000000001,349.86375,7.439999999999998,2047.445,1130.97375,1878.3725
16.9,406.1087500000001,21.0625,0.6949999999999363,1296.0625,491.0775000000001,353.36375,7.314999999999998,2062.82,1142.47375,1885.8725
17.0,416.3587500000001,21.5625,0.8199999999999363,1305.3125,496.8275000000001,356.73875,7.564999999999998,2077.195,1153.59875,1892.8725
17.1,426.6087500000001,22.3125,0.8199999999999363,1314.0625,502.5775000000001,359.98875,7.689999999999998,2090.945,1164.34875,1899.7475
17.2,436.8587500000001,22.9375,0.8199999999999363,1322.4375,507.9525000000001,362.98875,7.689999999999998,2103.82,1174.84875,1906.1225
17.3,446.9837500000001,23.5625,0.9449999999999364,1330.1875,513.0775000000001,365.98875,7.814999999999998,2115.82,1184.72375,1912.2475
17.4,457.1087500000001,24.1875,0.9449999999999364,1337.5625,518.0775000000001,368.73875,7.939999999999998,2127.32,1194.47375,1917.9975
17.5,467.2337500000001,24.8125,0.9449999999999364,1344.5625,522.7025000000001,371.36375,7.939999999999998,2138.07,1203.84875,1923.4975
17.6,477.2337500000001,25.4375,0.9449999999999364,1351.0625,527.2025000000001,373.86375,8.064999999999998,2148.07,1212.59875,1928.6225
17.7,487.2337500000001,26.0625,1.0699999999999363,1357.3125,531.4525000000001,376.23875,8.189999999999998,2157.695,1221.34875,1933.6225
17.8,497.1087500000001,26.6875,1.0699999999999363,1363.1875,535.4525000000001,378.48875,8.064999999999998,2166.82,1229.72375,1938.2475
17.9,506.9837500000001,27.3125,1.0699999999999363,1368.5625,539.2025000000001,380.61375,8.189999999999998,2175.195,1237.72375,1942.6225
18.0,516.7337500000001,28.0625,1.1949999999999363,1373.8125,542.8275000000001,382.61375,8.564999999999998,2183.32,1245.59875,1946.8725
18.1,526.4837500000001,28.6875,1.1949999999999363,1378.6875,546.2025000000001,384.61375,8.439999999999998,2191.07,1253.09875,1950.9975
18.2,536.1087500000001,29.3125,1.1949999999999363,1383.3125,549.4525000000001,386.36375,8.564999999999998,2198.07,1260.34875,1954.6225
18.3,545.7337500000001,29.8125,1.1949999999999363,1387.6875,552.4525000000001,387.98875,8.564999999999998,2204.945,1267.34875,1958.3725
18.4,555.2337500000001,30.4375,1.3199999999999363,1391.8125,555.2025000000001,389.61375,8.689999999999998,2211.445,1274.09875,1961.7475
18.5,564.4837500000001,31.1875,1.3199999999999363,1395.6875,557.9525000000001,390.98875,8.814999999999998,2217.445,1280.59875,1964.9975
18.6,573.8587500000001,31.8125,1.3199999999999363,1399.3125,560.4525000000001,392.36375,8.814999999999998,2223.195,1286.97375,1967.8725
18.7,583.1087500000001,32.4375,1.3199999999999363,1402.6875,562.7025000000001,393.61375,8.939999999999998,2228.57,1292.97375,1970.7475
18.8,592.1087500000001,33.1875,1.4449999999999363,1405.8125,564.9525000000001,394.73875,8.939999999999998,2233.57,1298.72375,1973.3725
18.9,601.2337500000001,33.8125,1.4449999999999363,1408.8125,566.9525000000001,395.73875,9.189999999999998,2238.445,1304.47375,1975.8725
19.0,610.2337500000001,34.4375,1.4449999999999363,1411.6875,568.8275000000001,396.73875,9.189999999999998,2242.945,1309.84875,1978.1225
19.1,618.9837500000001,35.0625,1.5699999999999363,1414.1875,570.4525000000001,397.61375,9.189999999999998,2247.195,1314.97375,1980.3725
19.2,627.7337500000001,35.6875,1.5699999999999363,1416.5625,572.0775000000001,398.48875,9.189999999999998,2251.195,1320.09875,1982.3725
19.3,636.4837500000001,36.3125,1.5699999999999363,1418.9375,573.4525000000001,399.23875,9.439999999999998,2254.945,1324.97375,1984.3725
19.4,644.8587500000001,37.0625,1.5699999999999363,1420.9375,574.7025000000001,399.86375,9.189999999999998,2258.57,1329.47375,1986.1225
19.5,653.4837500000001,37.6875,1.6949999999999363,1422.9375,575.8275000000001,400.48875,9.189999999999998,2261.945,1334.09875,1987.7475
19.6,661.7337500000001,38.3125,1.6949999999999363,1424.6875,576.8275000000001,400.98875,9.314999999999998,2265.195,1338.34875,1989.2475
19.7,669.9837500000001,39.0625,1.6949999999999363,1426.3125,577.7025000000001,401.48875,9.564999999999998,2268.195,1342.59875,1990.7475
19.8,678.1087500000001,39.6875,1.8199999999999363,1427.8125,578.4525000000001,401.86375,9.564999999999998,2270.945,1346.59875,1991.9975
19.9,686.1087500000001,40.1875,1.8199999999999363,1429.1875,579.0775000000001,402.23875,9.564999999999998,2273.57,1350.47375,1993.1225
20.0,693.9837500000001,40.9375,1.8199999999999363,1430.4375,579.4525000000001,402.48875,9.689999999999998,2276.07,1354.22375,1994.3725
20.1,701.7337500000001,41.5625,1.8199999999999363,1431.5625,579.9525000000001,402.73875,9.564999999999998,2278.445,1357.84875,1995.3725
20.2,709.4837500000001,42.1875,1.9449999999999363,1432.4375,580.2025000000001,402.86375,9.689999999999998,2280.57,1361.34875,1996.1225
20.3,717.1087500000001,42.8125,1.9449999999999363,1433.3125,580.3275000000001,402.98875,9.814999999999998,2282.57,1364.59875,1997.1225
20.4,724.6087500000001,43.4375,1.8199999999999363,1434.0625,580.3275000000001,403.11375,9.814999999999998,2284.57,1367.84875,1997.8725
20.5,731.8587500000001,44.0625,1.9449999999999363,1434.6875,580.3275000000001,403.11375,9.939999999999998,2286.32,1370.97375,1998.6225
20.6,739.2337500000001,44.6875,1.9449999999999363,1435.3125,580.2025000000001,403.11375,9.939999999999998,2287.945,1373.97375,1999.2475
20.7,746.3587500000001,45.3125,1.9449999999999363,1435.6875,579.9525000000001,402.98875,9.939999999999998,2289.445,1376.72375,1999.7475
20.8,753.3587500000001,45.9375,2.0699999999999363,1436.0625,579.5775000000001,402.86375,10.189999999999998,2290.82,1379.47375,2000.2475
20.9,760.3587500000001,46.6875,2.0699999999999363,1436.4375,579.2025000000001,402.73875,10.064999999999998,2292.195,1382.22375,2000.6225
21.0,767.1087500000001,47.1875,2.0699999999999363,1436.5625,578.5775000000001,402.48875,10.064999999999998,2293.445,1384.72375,2000.9975
21.1,773.7337500000001,47.9375,2.1949999999999363,1436.6875,578.0775000000001,402.11375,10.189999999999998,2294.57,1387.22375,2001.2475
21.2,780.3587500000001,48.4375,2.1949999999999363,1436.6875,577.3275000000001,401.86375,10.189999999999998,2295.57,1389.47375,2001.3725
21.3,786.8587500000001,49.0625,2.1949999999999363,1436.5625,576.4525000000001,401.48875,10.314999999999998,2296.445,1391.72375,2001.3725
21.4,793.2337500000001,49.6875,2.1949999999999363,1436.5625,575.7025000000001,401.11375,10.439999999999998,2297.32,1393.84875,2001.4975
21.5,799.4837500000001,50.3125,2.1949999999999363,1436.1875,574.5775000000001,400.61375,10.439999999999998,2298.07,1395.97375,2001.3725
21.6,805.6087500000001,50.9375,2.1949999999999363,1435.9375,573.5775000000001,400.11375,10.439999999999998,2298.82,1397.97375,2001.2475
21.7,811.6087500000001,51.4375,2.3199999999999363,1435.5625,572.5775000000001,399.61375,10.439999999999998,2299.445,1399.84875,2001.1225
21.8,817.6087500000001,52.1875,2.3199999999999363,1435.1875,571.3275000000001,398.98875,10.564999999999998,2299.945,1401.59875,2000.8725
21.9,823.3587500000001,52.6875,2.4449999999999363,1434.6875,570.2025000000001,398.36375,10.439999999999998,2300.32,1403.34875,2000.4975
22.0,828.9837500000001,53.3125,2.4449999999999363,1434.0625,568.8275000000001,397.86375,10.689999999999998,2300.82,1404.97375,2000.2475
22.1,834.6087500000001,53.9375,2.4449999999999363,1433.4375,567.4525000000001,397.11375,10.564999999999998,2301.07,1406.59875,1999.8725
22.2,840.2337500000001,54.4375,2.4449999999999363,1432.8125,566.0775000000001,396.48875,10.439999999999998,2301.32,1408.09875,1999.3725
22.3,845.4837500000001,55.0625,2.4449999999999363,1431.9375,564.5775000000001,395.73875,10.689999999999998,2301.57,1409.47375,1998.8725
22.4,850.8587500000001,55.6875,2.5699999999999363,1431.1875,563.0775000000001,394.98875,10.689999999999998,2301.695,1410.84875,1998.3725
22.5,855.9837500000001,56.1875,2.5699999999999363,1430.3125,561.5775000000001,394.23875,10.439999999999998,2301.82,1412.22375,1997.8725
22.6,860.9837500000001,56.9375,2.5699999999999363,1429.3125,559.9525000000001,393.36375,10.689999999999998,2301.82,1413.34875,1997.2475
22.7,865.9837500000001,57.4375,2.5699999999999363,1428.4375,558.3275000000001,392.61375,10.689999999999998,2301.82,1414.59875,1996.4975
22.8,870.7337500000001,57.9375,2.5699999999999363,1427.4375,556.5775000000001,391.73875,10.814999999999998,2301.82,1415.72375,1995.8725
22.9,875.6087500000001,58.5625,2.6949999999999363,1426.3125,554.8275000000001,390.86375,10.689999999999998,2301.57,1416.72375,1994.9975
23.0,880.2337500000001,59.0625,2.6949999999999363,1425.1875,553.0775000000001,389.86375,10.814999999999998,2301.445,1417.72375,1994.2475
23.1,884.8587500000001,59.5625,2.8199999999999363,1423.9375,551.3275000000001,388.98875,10.814999999999998,2301.195,1418.72375,1993.3725
23.2,889.2337500000001,60.1875,2.6949999999999363,1422.6875,549.4525000000001,387.98875,10.564999999999998,2300.945,1419.47375,1992.4975
23.3,893.6087500000001,60.6875,2.8199999999999363,1421.4375,547.5775000000001,386.98875,10.689999999999998,2300.57,1420.34875,1991.3725
23.4,897.8587500000001,61.3125,2.8199999999999363,1420.1875,545.8275000000001,385.98875,10.689999999999998,2300.195,1420.97375,1990.4975
23.5,902.10875,61.8125,2.8199999999999363,1418.6875,543.8275000000001,384.98875,10.939999999999998,2299.695,1421.72375,1989.4975
23.6,906.23375,62.3125,2.8199999999999363,1417.3125,541.9525000000001,383.98875,10.814999999999998,2299.32,1422.47375,1988.3725
23.7,910.10875,62.9375,2.9449999999999363,1415.8125,539.9525000000001,382.86375,10.689999999999998,2298.82,1422.97375,1987.2475
