time(s),F1,F2,F3,F4,F5,F6,F7,F8,F9,F10
10.0,-0.2999999999999545,0.3337500000000091,-0.0437500000000454,-3.133749999999964,-2.431250000000091,-1.8125,0.1624999999999943,-1.9825000000000728,-2.496250000000145,-5.134999999999991
10.1,-0.2999999999999545,0.3337500000000091,-0.0437500000000454,-3.258749999999964,-2.431250000000091,-1.8125,0.1624999999999943,-2.1075000000000728,-2.996250000000145,-5.509999999999991
10.2,-0.2999999999999545,0.4587500000000091,-0.1687500000000454,-3.383749999999964,-2.431250000000091,-1.9375,-0.0875000000000056,-2.1075000000000728,-3.121250000000145,-5.634999999999991
10.3,-0.4249999999999545,0.4587500000000091,-0.1687500000000454,-3.508749999999964,-2.431250000000091,-1.9375,0.1624999999999943,-2.2325000000000728,-3.121250000000145,-5.759999999999991
10.4,-0.4249999999999545,0.3337500000000091,-0.1687500000000454,-3.633749999999964,-2.556250000000091,-2.0625,0.0374999999999943,-2.2325000000000728,-3.121250000000145,-5.759999999999991
10.5,-0.4249999999999545,0.4587500000000091,-0.1687500000000454,-3.758749999999964,-2.556250000000091,-2.0625,0.1624999999999943,-2.3575000000000728,-2.996250000000145,-5.634999999999991
10.6,-0.4249999999999545,0.4587500000000091,-0.2937500000000455,-3.883749999999964,-2.556250000000091,-2.0625,-0.0875000000000056,-2.3575000000000728,-2.996250000000145,-5.259999999999991
10.7,-0.4249999999999545,0.3337500000000091,-0.2937500000000455,-3.883749999999964,-2.556250000000091,-2.0625,0.0374999999999943,-2.4825000000000728,-2.996250000000145,-4.259999999999991
10.8,-0.4249999999999545,0.4587500000000091,-0.2937500000000455,-3.883749999999964,-2.431250000000091,-1.9375,0.0374999999999943,-2.4825000000000728,-2.996250000000145,-2.134999999999991
10.9,-0.2999999999999545,0.3337500000000091,-0.2937500000000455,-3.758749999999964,-2.056250000000091,-1.6875,0.1624999999999943,-2.4825000000000728,-2.746250000000145,1.615000000000009
11.0,-0.0499999999999545,0.3337500000000091,-0.4187500000000455,-3.383749999999964,-1.431250000000091,-1.1875,0.0374999999999943,-2.3575000000000728,-2.246250000000145,7.740000000000009
11.1,0.4500000000000455,0.3337500000000091,-0.4187500000000455,-2.508749999999964,-0.1812500000000909,-0.1875,0.2874999999999943,-1.8575000000000728,-1.2462500000001455,17.36500000000001
11.2,1.2000000000000457,0.3337500000000091,-0.4187500000000455,-0.8837499999999636,1.943749999999909,1.6875,0.1624999999999943,-0.8575000000000728,0.7537499999998545,30.74000000000001
11.3,2.325000000000045,0.4587500000000091,-0.4187500000000455,1.9912500000000364,4.943749999999909,4.3125,0.5374999999999943,1.1424999999999272,4.378749999999855,48.99000000000001
11.4,3.8250000000000455,0.3337500000000091,-0.4187500000000455,6.491250000000036,8.818749999999909,8.1875,0.5374999999999943,5.017499999999927,10.003749999999854,72.61500000000001
11.5,5.9500000000000455,0.4587500000000091,-0.4187500000000455,13.116250000000036,13.568749999999907,12.8125,0.7874999999999943,11.142499999999927,18.25374999999985,102.365
11.6,8.450000000000045,0.4587500000000091,-0.4187500000000455,22.36625000000004,19.44374999999991,18.5625,0.9124999999999944,20.517499999999927,29.62874999999985,140.49
11.7,11.575000000000044,0.5837500000000091,-0.4187500000000455,34.74125000000004,25.94374999999991,25.1875,1.2874999999999943,33.76749999999993,44.503749999999854,187.74
11.8,15.325000000000044,0.8337500000000091,-0.4187500000000455,50.11625000000004,33.31874999999991,32.6875,1.4124999999999943,51.26749999999993,62.628749999999854,243.49
11.9,19.575000000000045,0.9587500000000092,-0.4187500000000455,69.24125000000004,41.69374999999991,41.0625,1.5374999999999943,73.89249999999993,84.75374999999985,308.865
12.0,24.450000000000045,1.208750000000009,-0.4187500000000455,91.99125000000004,50.81874999999991,50.1875,2.0374999999999943,102.01749999999991,110.37874999999984,382.49
12.1,29.825000000000045,1.458750000000009,-0.4187500000000455,118.99125000000004,61.06874999999991,60.3125,2.1624999999999943,136.39249999999993,139.87874999999983,464.99
12.2,35.950000000000045,1.833750000000009,-0.4187500000000455,150.24125000000004,72.44374999999991,71.0625,2.5374999999999943,177.39249999999993,172.75374999999983,553.74
12.3,42.575000000000045,2.083750000000009,-0.4187500000000455,184.99125000000004,84.44374999999991,82.0625,2.9124999999999943,224.89249999999996,208.00374999999983,645.365
12.4,49.825000000000045,2.458750000000009,-0.4187500000000455,224.24125000000004,97.81874999999992,93.9375,3.1624999999999943,279.8924999999999,246.12874999999983,740.365
12.5,57.575000000000045,2.958750000000009,-0.4187500000000455,267.11625000000004,111.81874999999992,106.3125,3.2874999999999943,341.6424999999999,286.00374999999985,836.115
12.6,65.82500000000005,3.333750000000009,-0.4187500000000455,312.86625000000004,126.69374999999992,118.9375,3.6624999999999934,409.3924999999999,327.00374999999985,930.49
12.7,74.70000000000005,3.833750000000009,-0.4187500000000455,362.11625,142.6937499999999,132.0625,3.9124999999999934,483.7674999999999,369.5037499999999,1022.74
12.8,84.07500000000005,4.208750000000009,-0.4187500000000455,413.86625,159.6937499999999,145.4375,4.287499999999994,563.5174999999999,412.7537499999999,1110.865
12.9,93.95000000000005,4.833750000000009,-0.4187500000000455,466.99125,177.1937499999999,158.9375,4.787499999999994,647.3924999999999,455.7537499999999,1194.49
13.0,104.32500000000005,5.333750000000009,-0.4187500000000455,522.11625,195.6937499999999,172.8125,4.912499999999994,735.8924999999999,499.2537499999999,1273.115
13.1,115.20000000000005,5.958750000000009,-0.4187500000000455,578.11625,214.5687499999999,186.6875,5.162499999999994,827.3924999999999,542.2537499999999,1344.365
13.2,126.45000000000005,6.583750000000009,-0.4187500000000455,633.74125,233.8187499999999,200.6875,5.412499999999994,919.6425,584.2537499999999,1408.865
13.3,138.20000000000005,7.208750000000009,-0.4187500000000455,689.61625,253.4437499999999,214.8125,5.787499999999994,1013.7675,626.0037499999999,1468.365
13.4,150.45000000000005,7.833750000000009,-0.4187500000000455,744.61625,273.0687499999999,228.8125,6.037499999999994,1107.3925,666.8787499999999,1522.74
13.5,162.95000000000005,8.458750000000009,-0.4187500000000455,797.61625,292.8187499999999,242.5625,6.412499999999994,1198.5175,706.5037499999999,1571.24
13.6,175.95000000000005,9.208750000000007,-0.4187500000000455,849.49125,312.5687499999999,256.3125,6.662499999999994,1287.8925,745.6287499999999,1615.865
13.7,189.32500000000005,9.958750000000007,-0.4187500000000455,899.36625,332.4437499999999,269.9375,6.787499999999994,1373.7675,783.6287499999999,1656.99
13.8,202.95000000000005,10.583750000000007,-0.2937500000000455,946.49125,352.0687499999999,283.1875,7.037499999999994,1454.6425,820.0037499999999,1694.74
13.9,216.95000000000005,11.458750000000007,-0.2937500000000455,991.74125,371.6937499999999,296.3125,7.287499999999994,1531.6425,855.6287499999999,1729.99
14.0,231.32500000000005,12.208750000000007,-0.2937500000000455,1034.36625,391.3187499999999,309.1875,7.537499999999994,1603.8925,889.8787499999999,1762.49
14.1,245.82500000000005,12.958750000000007,-0.2937500000000455,1074.24125,410.5687499999999,321.5625,7.787499999999994,1670.3925,922.50375,1791.74
14.2,260.57500000000005,13.833750000000007,-0.2937500000000455,1111.99125,429.6937499999999,333.8125,8.037499999999994,1732.6425,954.25375,1818.74
14.3,275.57500000000005,14.583750000000007,-0.1687500000000454,1147.24125,448.5687499999999,345.5625,8.162499999999994,1790.0175,984.75375,1843.865
14.4,290.70000000000005,15.458750000000007,-0.1687500000000454,1179.86625,467.0687499999999,356.9375,8.287499999999994,1842.1425,1013.62875,1866.865
14.5,306.07500000000005,16.20875000000001,-0.1687500000000454,1210.61625,485.3187499999999,368.0625,8.662499999999994,1890.5175,1041.50375,1888.365
14.6,321.70000000000005,17.20875000000001,-0.1687500000000454,1239.24125,503.1937499999999,378.9375,8.787499999999994,1934.5175,1068.12875,1907.99
14.7,337.32500000000005,18.08375000000001,-0.1687500000000454,1265.61625,520.4437499999999,389.1875,9.037499999999994,1974.3925,1093.25375,1925.99
14.8,353.32500000000005,18.95875000000001,-0.1687500000000454,1290.36625,537.4437499999999,399.1875,9.162499999999994,2011.2675,1117.62875,1943.115
14.9,369.2000000000001,19.83375000000001,-0.0437500000000454,1313.24125,553.8187499999999,408.8125,9.537499999999994,2044.8925,1140.62875,1959.365
15.0,385.0750000000001,20.83375000000001,-0.0437500000000454,1334.36625,569.5687499999999,417.9375,9.662499999999994,2075.1425,1162.50375,1974.365
15.1,401.2000000000001,21.70875000000001,-0.0437500000000454,1354.24125,585.0687499999999,426.8125,10.037499999999994,2103.2675,1183.62875,1988.24
15.2,417.3250000000001,22.58375000000001,-0.0437500000000454,1372.49125,599.9437499999999,435.1875,10.162499999999994,2128.6425,1203.50375,2001.365
15.3,433.5750000000001,23.58375000000001,-0.0437500000000454,1389.61625,614.4437499999999,443.3125,10.287499999999994,2152.1425,1222.75375,2013.615
15.4,449.8250000000001,24.58375000000001,0.0812499999999545,1405.61625,628.3187499999999,451.0625,10.412499999999994,2173.6425,1240.87875,2025.115
15.5,465.8250000000001,25.58375000000001,0.0812499999999545,1420.24125,641.5687499999999,458.4375,10.662499999999994,2193.1425,1258.25375,2035.615
15.6,482.0750000000001,26.58375000000001,0.2062499999999545,1434.11625,654.4437499999999,465.5625,10.787499999999994,2211.2675,1274.75375,2045.615
15.7,498.3250000000001,27.70875000000001,0.2062499999999545,1447.11625,666.8187499999999,472.3125,10.912499999999994,2227.8925,1290.50375,2054.865
15.8,514.325,28.58375000000001,0.2062499999999545,1458.99125,678.4437499999999,478.5625,11.037499999999994,2243.0175,1305.37875,2063.615
15.9,530.45,29.58375000000001,0.2062499999999545,1470.24125,689.6937499999999,484.6875,11.162499999999994,2257.1425,1319.75375,2071.74
16.0,546.45,30.70875000000001,0.2062499999999545,1480.61625,700.4437499999999,490.4375,11.412499999999994,2270.1425,1333.37875,2079.49
16.1,562.325,31.70875000000001,0.3312499999999545,1490.36625,710.6937499999999,495.9375,11.537499999999994,2282.0175,1346.25375,2086.74
16.2,578.2,32.83375000000001,0.3312499999999545,1499.49125,720.4437499999999,501.0625,11.537499999999994,2293.2675,1358.62875,2093.49
16.3,593.95,33.83375000000001,0.4562499999999545,1508.11625,729.6937499999999,505.9375,11.787499999999994,2303.5175,1370.50375,2099.99
16.4,609.45,34.83375000000001,0.4562499999999545,1516.11625,738.5687499999999,510.5625,11.912499999999994,2312.8925,1381.62875,2105.99
16.5,624.95,35.95875000000001,0.5812499999999545,1523.49125,746.9437499999999,514.9375,12.412499999999994,2321.7675,1392.37875,2111.74
16.6,640.325,36.95875000000001,0.5812499999999545,1530.61625,754.9437499999999,519.0625,12.287499999999994,2329.8925,1402.50375,2116.99
16.7,655.45,38.20875000000001,0.7062499999999545,1537.11625,762.4437499999999,522.8125,12.537499999999994,2337.3925,1412.25375,2121.99
16.8,670.575,39.20875000000001,0.5812499999999545,1543.24125,769.5687499999999,526.4375,12.662499999999994,2344.3925,1421.50375,2126.615
16.9,685.575,40.33375000000001,0.7062499999999545,1549.11625,776.4437499999999,529.9375,12.787499999999994,2350.8925,1430.37875,2131.115
17.0,700.2,41.33375000000001,0.7062499999999545,1554.49125,782.6937499999999,533.1875,12.787499999999994,2357.0175,1438.75375,2135.365
17.1,714.825,42.45875000000001,0.8312499999999545,1559.61625,788.6937499999999,536.1875,13.287499999999994,2362.6425,1446.75375,2139.365
17.2,729.2,43.58375000000001,0.8312499999999545,1564.36625,794.1937499999999,539.0625,13.162499999999994,2367.8925,1454.50375,2143.115
17.3,743.325,44.70875000000001,0.8312499999999545,1568.74125,799.4437499999999,541.6875,13.412499999999994,2372.6425,1461.75375,2146.615
17.4,757.325,45.83375000000001,0.8312499999999545,1572.99125,804.4437499999999,544.0625,13.412499999999994,2377.2675,1468.75375,2149.99
17.5,771.2,46.95875000000001,0.9562499999999544,1576.86625,809.0687499999999,546.3125,13.537499999999994,2381.5175,1475.50375,2153.115
17.6,784.7,48.08375000000001,0.9562499999999544,1580.49125,813.3187499999999,548.4375,13.662499999999994,2385.3925,1481.75375,2155.99
17.7,798.2,49.20875000000001,1.0812499999999543,1583.99125,817.3187499999999,550.4375,13.787499999999994,2388.8925,1487.87875,2158.74
17.8,811.45,50.45875000000001,1.0812499999999543,1587.11625,821.0687499999999,552.1875,14.037499999999994,2392.3925,1493.75375,2161.365
17.9,824.325,51.45875000000001,1.0812499999999543,1589.99125,824.5687499999999,553.8125,14.162499999999994,2395.5175,1499.25375,2163.74
18.0,837.2,52.58375000000001,1.0812499999999543,1592.74125,827.6937499999999,555.3125,14.037499999999994,2398.3925,1504.50375,2165.99
18.1,849.7,53.70875000000001,1.2062499999999543,1595.24125,830.6937499999999,556.6875,14.287499999999994,2401.1425,1509.62875,2168.115
18.2,862.075,54.83375000000001,1.2062499999999543,1597.61625,833.3187499999999,557.9375,14.287499999999994,2403.5175,1514.37875,2170.115
18.3,874.2,56.08375000000001,1.2062499999999543,1599.86625,835.6937499999999,559.0625,14.287499999999994,2406.0175,1519.00375,2171.99
18.4,885.95,57.20875000000001,1.2062499999999543,1601.86625,837.8187499999999,560.0625,14.537499999999994,2408.1425,1523.37875,2173.74
18.5,897.7,58.33375000000001,1.3312499999999543,1603.74125,839.8187499999999,560.9375,14.662499999999994,2410.1425,1527.62875,2175.24
18.6,909.2,59.45875000000001,1.3312499999999543,1605.36625,841.5687499999999,561.6875,14.662499999999994,2412.0175,1531.62875,2176.865
18.7,920.325,60.58375000000001,1.4562499999999543,1606.99125,843.0687499999999,562.3125,14.787499999999994,2413.7675,1535.37875,2178.24
18.8,931.325,61.70875000000001,1.4562499999999543,1608.36625,844.4437499999999,562.8125,14.912499999999994,2415.2675,1539.12875,2179.49
18.9,942.075,62.95875000000001,1.4562499999999543,1609.61625,845.6937499999999,563.4375,15.162499999999994,2416.7675,1542.62875,2180.74
19.0,952.575,63.95875000000001,1.4562499999999543,1610.74125,846.5687499999999,563.6875,15.162499999999994,2418.1425,1545.87875,2181.865
19.1,962.95,65.20875000000001,1.5812499999999543,1611.61625,847.4437499999999,563.9375,15.162499999999994,2419.3925,1549.00375,2182.865
19.2,973.075,66.33375000000001,1.5812499999999543,1612.61625,848.0687499999999,564.0625,15.162499999999994,2420.5175,1552.00375,2183.865
19.3,982.95,67.45875000000001,1.5812499999999543,1613.24125,848.5687499999999,564.1875,15.287499999999994,2421.5175,1554.87875,2184.74
19.4,992.575,68.58375000000001,1.7062499999999543,1613.99125,848.8187499999999,564.1875,15.287499999999994,2422.6425,1557.62875,2185.49
19.5,1002.075,69.70875000000001,1.7062499999999543,1614.49125,849.0687499999999,564.1875,15.537499999999994,2423.3925,1560.37875,2186.24
19.6,1011.2,70.83375000000001,1.7062499999999543,1614.86625,849.0687499999999,564.0625,15.662499999999994,2424.1425,1562.75375,2186.865
19.7,1020.325,71.95875000000001,1.7062499999999543,1615.24125,848.9437499999999,563.8125,15.912499999999994,2424.8925,1565.12875,2187.365
19.8,1029.075,73.08375000000001,1.8312499999999543,1615.49125,848.6937499999999,563.5625,15.912499999999994,2425.5175,1567.37875,2187.865
19.9,1037.575,74.20875000000001,1.8312499999999543,1615.74125,848.4437499999999,563.3125,15.912499999999994,2426.0175,1569.50375,2188.365
20.0,1045.95,75.33375000000001,1.9562499999999543,1615.86625,847.8187499999999,562.9375,16.037499999999994,2426.5175,1571.62875,2188.74
20.1,1054.2,76.45875000000001,1.8312499999999543,1615.74125,847.3187499999999,562.4375,16.037499999999994,2426.8925,1573.62875,2188.99
20.2,1061.95,77.45875000000001,1.9562499999999543,1615.74125,846.5687499999999,561.9375,15.912499999999994,2427.2675,1575.37875,2189.24
20.3,1069.825,78.58375000000001,1.9562499999999543,1615.61625,845.8187499999999,561.3125,16.287499999999994,2427.6425,1577.12875,2189.365
20.4,1077.325,79.70875000000001,1.9562499999999543,1615.36625,844.8187499999999,560.6875,16.287499999999994,2427.7675,1578.75375,2189.49
20.5,1084.7,80.83375000000001,2.0812499999999545,1614.99125,843.8187499999999,560.0625,16.287499999999994,2428.0175,1580.37875,2189.49
20.6,1091.95,81.95875000000001,2.0812499999999545,1614.61625,842.5687499999999,559.3125,16.412499999999994,2428.1425,1581.87875,2189.365
20.7,1098.825,83.08375000000001,2.0812499999999545,1614.24125,841.4437499999999,558.4375,16.412499999999994,2428.1425,1583.25375,2189.365
20.8,1105.575,84.20875000000001,2.0812499999999545,1613.61625,840.1937499999999,557.6875,16.287499999999994,2428.2675,1584.62875,2189.24
20.9,1112.2,85.33375000000001,2.2062499999999545,1613.11625,838.8187499999999,556.8125,16.412499999999994,2428.1425,1585.75375,2189.115
21.0,1118.7,86.45875000000001,2.2062499999999545,1612.49125,837.3187499999999,555.8125,16.537499999999994,2428.1425,1587.00375,2188.865
21.1,1124.825,87.45875000000001,2.2062499999999545,1611.86625,835.8187499999999,554.8125,16.787499999999994,2428.1425,1588.00375,2188.615
21.2,1130.95,88.45875000000001,2.2062499999999545,1611.11625,834.1937499999999,553.8125,16.787499999999994,2427.8925,1589.12875,2188.24
21.3,1136.825,89.58375000000001,2.2062499999999545,1610.24125,832.4437499999999,552.8125,16.912499999999994,2427.7675,1590.00375,2187.99
21.4,1142.575,90.58375,2.2062499999999545,1609.49125,830.6937499999999,551.6875,16.912499999999994,2427.5175,1590.87875,2187.49
21.5,1148.075,91.83375,2.3312499999999545,1608.61625,828.8187499999999,550.5625,17.162499999999994,2427.2675,1591.62875,2187.115
21.6,1153.45,92.70875,2.3312499999999545,1607.61625,826.9437499999999,549.5625,17.162499999999994,2426.8925,1592.37875,2186.615
21.7,1158.7,93.83375,2.3312499999999545,1606.74125,824.8187499999999,548.4375,17.287499999999994,2426.6425,1593.12875,2186.24
21.8,1163.7,94.83375,2.4562499999999545,1605.61625,822.8187499999999,547.1875,17.412499999999994,2426.1425,1593.75375,2185.74
21.9,1168.575,95.83375,2.4562499999999545,1604.61625,820.6937499999999,546.0625,17.287499999999994,2425.7675,1594.37875,2185.24
22.0,1173.325,96.95875,2.4562499999999545,1603.61625,818.6937499999999,544.8125,17.287499999999994,2425.3925,1594.87875,2184.615
22.1,1177.95,97.95875,2.4562499999999545,1602.36625,816.4437499999999,543.5625,17.412499999999994,2425.0175,1595.37875,2183.99
22.2,1182.45,98.95875,2.4562499999999545,1601.24125,814.3187499999999,542.3125,17.162499999999994,2424.5175,1595.87875,2183.24
22.3,1186.825,99.95875,2.4562499999999545,1599.99125,812.0687499999999,540.9375,17.287499999999994,2424.0175,1596.25375,2182.615
22.4,1190.95,101.08375,2.5812499999999545,1598.61625,809.5687499999999,539.6875,17.412499999999994,2423.5175,1596.62875,2181.865
22.5,1195.075,102.08375,2.5812499999999545,1597.24125,807.1937499999999,538.3125,17.412499999999994,2422.8925,1596.87875,2181.115
22.6,1198.825,102.95875,2.5812499999999545,1595.99125,804.8187499999999,536.9375,17.412499999999994,2422.2675,1597.25375,2180.365
22.7,1202.7,104.08375,2.7062499999999545,1594.49125,802.3187499999999,535.5625,17.412499999999994,2421.6425,1597.37875,2179.49
22.8,1206.325,104.95875,2.7062499999999545,1593.11625,799.8187499999999,534.1875,17.537499999999994,2421.0175,1597.62875,2178.615
22.9,1209.825,105.95875,2.7062499999999545,1591.61625,797.4437499999999,532.8125,17.412499999999994,2420.3925,1597.75375,2177.74
23.0,1213.2,106.95875,2.7062499999999545,1590.11625,794.8187499999999,531.3125,17.662499999999994,2419.6425,1597.87875,2176.74
23.1,1216.45,107.95875,2.7062499999999545,1588.61625,792.1937499999999,529.9375,17.662499999999994,2418.8925,1597.87875,2175.865
23.2,1219.575,108.83375,2.7062499999999545,1586.99125,789.5687499999999,528.4375,17.787499999999994,2418.2675,1598.00375,2174.865
23.3,1222.7,109.83375,2.8312499999999545,1585.49125,786.8187499999999,527.0625,17.787499999999994,2417.5175,1598.00375,2173.74
23.4,1225.575,110.83375,2.8312499999999545,1583.74125,784.1937499999999,525.5625,17.662499999999994,2416.6425,1598.00375,2172.865
