time(s),F1,F2,F3,F4,F5,F6,F7,F8,F9,F10
10.0,0.9700000000000272,0.1712499999999863,0.1237499999999727,5.1875,-0.2537500000000818,10.678750000000036,2.2862499999999955,4.152499999999918,1.4700000000000273,2.259999999999991
10.1,0.9700000000000272,0.0462499999999863,0.1237499999999727,5.3125,-0.2537500000000818,11.303750000000036,2.2862499999999955,4.152499999999918,1.2200000000000273,2.009999999999991
10.2,0.9700000000000272,0.1712499999999863,0.1237499999999727,5.3125,-0.2537500000000818,11.928750000000036,2.6612499999999955,4.152499999999918,1.0950000000000273,1.884999999999991
10.3,0.9700000000000272,0.1712499999999863,0.1237499999999727,5.3125,-0.2537500000000818,12.553750000000036,2.5362499999999955,4.152499999999918,1.0950000000000273,1.884999999999991
10.4,1.0950000000000273,0.1712499999999863,0.1237499999999727,5.3125,-0.2537500000000818,13.303750000000036,2.7862499999999955,4.152499999999918,1.0950000000000273,1.884999999999991
10.5,1.0950000000000273,0.1712499999999863,0.1237499999999727,5.3125,-0.2537500000000818,13.928750000000036,2.7862499999999955,4.277499999999918,0.9700000000000272,1.884999999999991
10.6,1.2200000000000273,0.1712499999999863,0.1237499999999727,5.4375,-0.2537500000000818,14.553750000000036,3.0362499999999955,4.277499999999918,0.9700000000000272,2.509999999999991
10.7,1.2200000000000273,0.1712499999999863,0.1237499999999727,5.4375,-0.1287500000000818,15.303750000000036,3.1612499999999955,4.277499999999918,1.0950000000000273,3.759999999999991
10.8,1.4700000000000273,0.2962499999999863,0.1237499999999727,5.5625,0.2462499999999181,16.053750000000036,3.4112499999999955,4.277499999999918,1.0950000000000273,6.384999999999991
10.9,1.7200000000000273,0.2962499999999863,-0.0012500000000272,5.8125,0.8712499999999181,17.053750000000036,3.786249999999996,4.402499999999918,1.2200000000000273,10.884999999999993
11.0,2.3450000000000277,0.2962499999999863,0.1237499999999727,6.1875,1.996249999999918,18.55375000000004,4.036249999999996,4.902499999999918,1.7200000000000273,17.63499999999999
11.1,3.2200000000000277,0.2962499999999863,0.1237499999999727,7.3125,3.746249999999918,20.67875000000004,4.161249999999996,5.902499999999918,2.8450000000000277,27.13499999999999
11.2,4.345000000000027,0.4212499999999863,0.1237499999999727,9.1875,6.621249999999918,23.55375000000004,4.286249999999996,8.152499999999918,5.720000000000027,40.50999999999999
11.3,5.970000000000027,0.5462499999999864,0.1237499999999727,12.4375,10.621249999999918,27.42875000000004,4.536249999999996,12.027499999999918,10.845000000000027,58.13499999999999
11.4,8.095000000000027,0.5462499999999864,0.1237499999999727,17.5625,15.621249999999918,32.17875000000004,4.786249999999996,18.02749999999992,18.720000000000027,80.13499999999999
11.5,10.470000000000027,0.5462499999999864,0.1237499999999727,24.8125,21.62124999999992,37.67875000000004,5.161249999999996,26.90249999999992,30.095000000000027,107.635
11.6,13.470000000000027,0.7962499999999864,0.1237499999999727,34.8125,28.49624999999992,44.17875000000004,5.286249999999996,39.15249999999992,44.84500000000003,141.76
11.7,17.095000000000027,0.9212499999999864,0.1237499999999727,47.4375,36.24624999999992,51.30375000000004,5.536249999999996,55.40249999999992,63.09500000000003,182.885
11.8,21.220000000000027,1.1712499999999864,0.1237499999999727,63.4375,44.99624999999992,59.30375000000004,6.161249999999996,76.15249999999992,85.22000000000003,233.135
11.9,25.720000000000027,1.2962499999999864,0.1237499999999727,82.5625,54.74624999999992,67.92875000000004,6.536249999999996,102.02749999999992,111.09500000000004,292.885
12.0,30.970000000000027,1.6712499999999864,0.2487499999999727,105.0625,65.37124999999992,77.05375000000004,6.786249999999996,133.02749999999992,140.09500000000003,360.76
12.1,36.59500000000003,2.0462499999999864,0.2487499999999727,131.3125,77.12124999999992,86.92875000000004,7.2862499999999955,169.90249999999992,172.47000000000003,437.01
12.2,42.97000000000003,2.4212499999999864,0.2487499999999727,161.1875,89.74624999999992,97.30375000000004,7.6612499999999955,212.65249999999992,207.22000000000003,521.01
12.3,49.72000000000003,2.7962499999999864,0.2487499999999727,194.4375,103.24624999999992,108.17875000000004,8.036249999999995,260.7774999999999,243.47000000000003,610.635
12.4,57.09500000000003,3.1712499999999864,0.2487499999999727,231.3125,117.49624999999992,119.55375000000004,8.286249999999995,315.4024999999999,281.595,704.635
12.5,65.09500000000003,3.6712499999999855,0.2487499999999727,271.5625,132.49624999999992,131.42875000000004,8.786249999999995,376.0274999999999,320.72,798.76
12.6,73.34500000000003,4.046249999999986,0.2487499999999727,314.5625,147.87124999999992,143.55375000000004,9.161249999999995,441.5274999999999,360.47,890.26
12.7,82.34500000000003,4.671249999999986,0.2487499999999727,360.6875,163.74624999999992,156.05375000000004,9.411249999999995,513.5274999999999,401.47,980.135
12.8,91.72000000000004,5.171249999999986,0.2487499999999727,409.3125,180.24624999999992,168.80375000000004,9.911249999999995,590.5274999999999,443.345,1066.76
12.9,101.47000000000004,5.671249999999986,0.2487499999999727,459.3125,196.99624999999992,181.42875000000004,10.036249999999995,671.0274999999999,485.22,1148.385
13.0,111.72000000000004,6.296249999999986,0.3737499999999727,511.3125,214.37124999999992,194.42875000000004,10.536249999999995,755.9024999999999,527.97,1226.51
13.1,122.47000000000004,6.921249999999986,0.2487499999999727,564.4375,232.24624999999992,207.67875000000004,10.911249999999995,843.4024999999999,570.72,1299.26
13.2,133.59500000000003,7.546249999999986,0.3737499999999727,617.3125,250.12124999999992,220.67875000000004,11.286249999999995,931.6525,612.595,1365.635
13.3,145.09500000000003,8.171249999999986,0.3737499999999727,670.8125,268.4962499999999,234.05375000000004,11.536249999999995,1021.6525,654.47,1428.01
13.4,156.97000000000003,8.796249999999986,0.3737499999999727,723.6875,287.2462499999999,247.30375000000004,12.036249999999995,1111.6525,695.22,1485.385
13.5,169.09500000000003,9.546249999999986,0.3737499999999727,775.1875,305.8712499999999,260.30375000000004,12.411249999999995,1199.5275,734.72,1537.635
13.6,181.59500000000003,10.171249999999986,0.3737499999999727,825.8125,324.9962499999999,273.42875000000004,12.661249999999995,1286.6525,773.47,1586.135
13.7,194.47000000000003,10.921249999999986,0.3737499999999727,874.8125,344.1212499999999,286.30375000000004,13.161249999999995,1371.0275,810.97,1631.26
13.8,207.59500000000003,11.671249999999986,0.4987499999999727,921.1875,363.1212499999999,298.80375000000004,13.161249999999995,1451.4025,846.97,1672.51
13.9,220.97000000000003,12.296249999999986,0.3737499999999727,966.1875,382.2462499999999,311.30375000000004,13.661249999999995,1528.5275,881.845,1710.76
14.0,234.59500000000003,13.171249999999986,0.4987499999999727,1008.3125,400.9962499999999,323.42875000000004,13.911249999999995,1600.4025,915.22,1744.76
14.1,248.59500000000003,13.796249999999986,0.4987499999999727,1048.6875,419.8712499999999,335.55375000000004,14.161249999999995,1668.5275,947.72,1776.01
14.2,262.845,14.671249999999986,0.4987499999999727,1086.6875,438.2462499999999,347.17875000000004,14.536249999999995,1732.1525,978.845,1804.51
14.3,277.095,15.546249999999986,0.4987499999999727,1122.1875,456.2462499999999,358.55375000000004,14.786249999999995,1790.4025,1008.47,1830.885
14.4,291.72,16.296249999999986,0.6237499999999727,1155.6875,474.1212499999999,369.80375,15.286249999999995,1844.7775,1037.47,1855.885
14.5,306.47,17.046249999999986,0.6237499999999727,1187.1875,491.6212499999999,380.55375,15.411249999999995,1894.7775,1065.095,1879.135
14.6,321.22,18.046249999999983,0.6237499999999727,1216.1875,508.4962499999999,390.92875,15.536249999999995,1940.1525,1091.345,1900.385
14.7,336.345,18.796249999999983,0.6237499999999727,1243.6875,525.1212499999999,401.17875,15.911249999999995,1982.2775,1116.845,1920.385
14.8,351.47,19.671249999999983,0.6237499999999727,1269.3125,541.3712499999999,410.92875,16.161249999999995,2020.9025,1141.345,1938.885
14.9,366.72,20.546249999999983,0.6237499999999727,1292.9375,556.8712499999999,420.30375,16.536249999999995,2055.7775,1164.47,1956.01
15.0,382.095,21.421249999999983,0.7487499999999727,1315.1875,572.1212499999999,429.42875,16.661249999999995,2088.1525,1186.72,1972.26
15.1,397.47,22.296249999999983,0.7487499999999727,1335.8125,586.8712499999999,438.30375,17.286249999999995,2117.9025,1208.22,1987.385
15.2,412.845,23.171249999999983,0.7487499999999727,1355.0625,601.1212499999999,446.67875,17.286249999999995,2144.7775,1228.47,2001.26
15.3,428.47,24.046249999999983,0.8737499999999727,1373.0625,614.8712499999999,454.67875,17.411249999999995,2169.7775,1247.97,2014.51
15.4,444.095,25.046249999999983,0.8737499999999727,1389.8125,628.2462499999999,462.55375,17.661249999999995,2192.7775,1266.72,2026.76
15.5,459.47,26.046249999999983,0.8737499999999727,1405.3125,640.8712499999999,469.92875,17.911249999999995,2213.6525,1284.345,2038.385
15.6,475.095,26.921249999999983,0.9987499999999728,1419.9375,653.1212499999999,477.05375,18.036249999999995,2233.1525,1301.345,2049.135
15.7,490.72,27.796249999999983,0.9987499999999728,1433.5625,664.9962499999999,483.92875,18.536249999999995,2251.0275,1317.595,2059.385
15.8,506.095,28.796249999999983,0.9987499999999728,1446.1875,676.1212499999999,490.42875,18.661249999999995,2267.4025,1332.845,2068.885
15.9,521.595,29.796249999999983,0.9987499999999728,1458.0625,687.1212499999999,496.55375,19.161249999999995,2282.6525,1347.72,2077.885
16.0,537.095,30.921249999999983,1.1237499999999727,1469.3125,697.3712499999999,502.55375,19.411249999999995,2296.6525,1361.845,2086.385
16.1,552.345,31.796249999999983,1.1237499999999727,1479.5625,707.1212499999999,508.17875,19.661249999999995,2309.5275,1375.22,2094.385
16.2,567.72,32.796249999999986,1.1237499999999727,1489.3125,716.4962499999999,513.55375,19.661249999999995,2321.6525,1388.095,2101.885
16.3,582.845,33.796249999999986,1.2487499999999727,1498.5625,725.6212499999999,518.67875,19.786249999999995,2332.9025,1400.345,2109.135
16.4,597.97,34.796249999999986,1.2487499999999727,1506.9375,733.9962499999999,523.42875,19.911249999999995,2343.1525,1412.095,2115.76
16.5,612.97,35.921249999999986,1.2487499999999727,1515.0625,742.2462499999999,528.05375,20.286249999999995,2352.7775,1423.345,2122.135
16.6,627.845,36.92124999999999,1.3737499999999727,1522.5625,749.8712499999999,532.42875,20.286249999999995,2361.7775,1433.97,2128.135
16.7,642.47,37.92124999999999,1.3737499999999727,1529.5625,757.1212499999999,536.55375,20.661249999999995,2370.1525,1444.22,2133.76
16.8,657.095,38.92124999999999,1.3737499999999727,1536.1875,763.9962499999999,540.55375,20.911249999999995,2377.7775,1453.97,2139.01
16.9,671.595,39.92124999999999,1.3737499999999727,1542.4375,770.4962499999999,544.30375,20.786249999999995,2385.0275,1463.345,2144.135
17.0,685.845,41.04624999999999,1.4987499999999727,1548.3125,776.7462499999999,547.67875,21.286249999999995,2391.6525,1472.095,2148.885
17.1,699.97,42.04624999999999,1.4987499999999727,1553.8125,782.4962499999999,550.92875,21.536249999999995,2397.9025,1480.72,2153.385
17.2,713.845,43.04624999999999,1.4987499999999727,1558.9375,787.8712499999999,554.05375,21.536249999999995,2403.6525,1488.72,2157.635
17.3,727.72,44.04624999999999,1.6237499999999727,1563.6875,792.9962499999999,556.92875,21.911249999999995,2409.1525,1496.47,2161.635
17.4,741.47,45.17124999999999,1.6237499999999727,1568.3125,797.8712499999999,559.67875,22.036249999999995,2414.1525,1503.97,2165.385
17.5,754.72,46.17124999999999,1.7487499999999727,1572.4375,802.3712499999999,562.30375,22.161249999999995,2418.9025,1510.97,2168.885
17.6,768.095,47.29624999999999,1.7487499999999727,1576.4375,806.4962499999999,564.67875,22.286249999999995,2423.2775,1517.845,2172.26
17.7,781.345,48.42124999999999,1.7487499999999727,1580.3125,810.4962499999999,566.92875,22.286249999999995,2427.4025,1524.345,2175.385
17.8,794.095,49.42124999999999,1.7487499999999727,1583.6875,814.1212499999999,568.92875,22.661249999999995,2431.1525,1530.47,2178.26
17.9,806.845,50.42124999999999,1.7487499999999727,1586.9375,817.3712499999999,570.80375,22.786249999999995,2434.7775,1536.47,2181.135
18.0,819.345,51.42124999999999,1.8737499999999727,1589.9375,820.4962499999999,572.55375,22.911249999999995,2438.0275,1542.095,2183.76
18.1,831.595,52.54624999999999,1.8737499999999727,1592.8125,823.3712499999999,574.30375,23.286249999999995,2441.0275,1547.47,2186.26
18.2,843.72,53.67124999999999,1.8737499999999727,1595.4375,825.9962499999999,575.80375,23.286249999999995,2444.0275,1552.595,2188.635
18.3,855.595,54.67124999999999,1.9987499999999727,1597.9375,828.4962499999999,577.17875,23.286249999999995,2446.7775,1557.72,2190.885
18.4,867.22,55.67124999999999,1.9987499999999727,1600.3125,830.6212499999999,578.42875,23.536249999999995,2449.2775,1562.345,2192.885
18.5,878.845,56.79624999999999,1.9987499999999727,1602.4375,832.4962499999999,579.55375,23.786249999999995,2451.5275,1566.97,2194.885
18.6,890.095,57.79624999999999,1.9987499999999727,1604.3125,834.2462499999999,580.67875,23.911249999999995,2453.7775,1571.345,2196.76
18.7,901.095,58.92124999999999,2.1237499999999727,1606.1875,835.7462499999999,581.55375,23.911249999999995,2455.7775,1575.47,2198.51
18.8,911.97,59.92124999999999,2.1237499999999727,1607.8125,837.1212499999999,582.42875,23.911249999999995,2457.7775,1579.47,2200.135
18.9,922.72,61.04624999999999,2.1237499999999727,1609.3125,838.2462499999999,583.17875,24.161249999999995,2459.4025,1583.22,2201.635
19.0,932.97,62.04624999999999,2.1237499999999727,1610.8125,839.2462499999999,583.80375,24.536249999999995,2461.0275,1586.97,2203.135
19.1,943.345,63.17124999999999,2.2487499999999727,1612.0625,840.1212499999999,584.30375,24.536249999999995,2462.6525,1590.345,2204.385
19.2,953.345,64.29624999999999,2.2487499999999727,1613.1875,840.7462499999999,584.80375,24.786249999999995,2464.0275,1593.72,2205.635
19.3,963.095,65.29624999999999,2.2487499999999727,1614.1875,841.2462499999999,585.17875,24.786249999999995,2465.2775,1596.97,2206.76
19.4,972.72,66.42124999999999,2.2487499999999727,1615.1875,841.7462499999999,585.42875,24.786249999999995,2466.5275,1599.97,2207.76
19.5,982.22,67.42124999999999,2.2487499999999727,1616.0625,841.9962499999999,585.67875,24.786249999999995,2467.6525,1602.97,2208.76
19.6,991.345,68.54624999999999,2.3737499999999727,1616.6875,842.1212499999999,585.80375,25.161249999999995,2468.6525,1605.72,2209.76
19.7,1000.345,69.54624999999999,2.3737499999999727,1617.3125,842.1212499999999,585.92875,25.036249999999995,2469.5275,1608.345,2210.51
19.8,1009.095,70.54624999999999,2.4987499999999727,1617.9375,841.9962499999999,585.92875,25.286249999999995,2470.4025,1610.845,2211.26
19.9,1017.72,71.67124999999999,2.3737499999999727,1618.3125,841.7462499999999,585.80375,25.411249999999995,2471.2775,1613.22,2211.885
20.0,1026.095,72.67124999999999,2.4987499999999727,1618.5625,841.3712499999999,585.67875,25.536249999999995,2471.9025,1615.595,2212.51
20.1,1034.345,73.67124999999999,2.4987499999999727,1618.9375,840.8712499999999,585.42875,25.661249999999995,2472.5275,1617.72,2213.01
20.2,1042.22,74.67124999999999,2.4987499999999727,1619.0625,840.3712499999999,585.17875,25.661249999999995,2473.1525,1619.845,2213.385
20.3,1050.095,75.79624999999999,2.6237499999999727,1619.0625,839.7462499999999,584.80375,25.911249999999995,2473.6525,1621.845,2213.885
20.4,1057.72,76.79624999999999,2.6237499999999727,1619.1875,838.9962499999999,584.42875,25.911249999999995,2474.0275,1623.595,2214.135
20.5,1065.095,77.79624999999999,2.6237499999999727,1619.0625,838.1212499999999,583.92875,25.911249999999995,2474.4025,1625.47,2214.385
20.6,1072.345,78.92124999999999,2.6237499999999727,1618.9375,837.1212499999999,583.42875,26.161249999999995,2474.7775,1627.095,2214.635
20.7,1079.345,79.92124999999999,2.6237499999999727,1618.6875,835.9962499999999,582.80375,26.161249999999995,2474.9025,1628.72,2214.76
20.8,1086.345,80.92124999999999,2.6237499999999727,1618.4375,834.7462499999999,582.30375,26.286249999999995,2475.1525,1630.22,2214.885
20.9,1092.97,81.79624999999999,2.7487499999999727,1618.0625,833.4962499999999,581.67875,26.536249999999995,2475.2775,1631.72,2215.01
21.0,1099.47,82.92124999999999,2.7487499999999727,1617.6875,832.2462499999999,580.92875,26.411249999999995,2475.4025,1632.97,2215.01
21.1,1105.845,83.92124999999999,2.7487499999999727,1617.1875,830.7462499999999,580.17875,26.536249999999995,2475.4025,1634.345,2214.885
21.2,1111.97,84.92124999999999,2.7487499999999727,1616.6875,829.3712499999999,579.42875,26.661249999999995,2475.5275,1635.595,2214.885
21.3,1118.095,85.92124999999999,2.7487499999999727,1616.1875,827.7462499999999,578.67875,26.661249999999995,2475.4025,1636.595,2214.635
21.4,1123.845,86.79624999999999,2.7487499999999727,1615.5625,826.1212499999999,577.67875,26.786249999999995,2475.2775,1637.72,2214.51
21.5,1129.47,87.92124999999999,2.8737499999999727,1614.8125,824.3712499999999,576.80375,26.661249999999995,2475.1525,1638.72,2214.26
21.6,1134.97,88.79624999999999,2.8737499999999727,1614.1875,822.6212499999999,575.92875,26.911249999999995,2475.0275,1639.595,2213.885
21.7,1140.345,89.92124999999999,2.8737499999999727,1613.4375,820.7462499999999,575.05375,27.036249999999995,2474.7775,1640.47,2213.635
21.8,1145.595,90.79625,2.8737499999999727,1612.5625,818.8712499999999,574.05375,27.036249999999995,2474.5275,1641.22,2213.26
21.9,1150.595,91.79625,2.9987499999999727,1611.6875,816.8712499999999,573.05375,27.161249999999995,2474.2775,1641.97,2212.76
22.0,1155.47,92.67125,2.9987499999999727,1610.8125,814.8712499999999,571.92875,27.161249999999995,2473.9025,1642.72,2212.26
22.1,1160.345,93.67125,2.9987499999999727,1609.8125,812.7462499999999,570.92875,27.286249999999995,2473.6525,1643.345,2211.76
22.2,1164.97,94.54625,2.9987499999999727,1608.8125,810.4962499999999,569.80375,27.286249999999995,2473.2775,1643.845,2211.26
22.3,1169.345,95.54625,2.9987499999999727,1607.8125,808.3712499999999,568.67875,27.411249999999995,2472.9025,1644.47,2210.635
22.4,1173.72,96.54625,2.9987499999999727,1606.8125,806.1212499999999,567.55375,27.411249999999995,2472.4025,1644.845,2210.01
22.5,1177.845,97.42125,3.1237499999999727,1605.6875,803.7462499999999,566.30375,27.536249999999995,2472.0275,1645.345,2209.385
22.6,1181.97,98.42125,3.1237499999999727,1604.4375,801.4962499999999,565.17875,27.536249999999995,2471.5275,1645.72,2208.635
22.7,1185.845,99.17125,3.1237499999999727,1603.1875,798.9962499999999,563.92875,27.786249999999995,2471.0275,1646.095,2208.01
22.8,1189.595,100.17125,3.1237499999999727,1602.0625,796.7462499999999,562.67875,27.786249999999995,2470.5275,1646.47,2207.26
22.9,1193.345,101.17125,3.1237499999999727,1600.6875,794.2462499999999,561.30375,27.911249999999995,2470.0275,1646.72,2206.51
23.0,1196.845,101.92125,3.2487499999999727,1599.4375,791.7462499999999,559.92875,27.786249999999995,2469.4025,1646.845,2205.635
23.1,1200.22,102.79625,3.2487499999999727,1597.9375,789.2462499999999,558.67875,27.786249999999995,2468.7775,1646.97,2204.885
23.2,1203.595,103.79625,3.2487499999999727,1596.5625,786.6212499999999,557.17875,27.911249999999995,2468.1525,1647.22,2204.01
23.3,1206.845,104.54625,3.3737499999999727,1595.1875,783.9962499999999,555.80375,28.036249999999995,2467.4025,1647.345,2203.01
23.4,1209.845,105.42125,3.2487499999999727,1593.6875,781.4962499999999,554.42875,28.036249999999995,2466.7775,1647.22,2202.135
23.5,1212.845,106.29625,3.3737499999999727,1592.1875,778.7462499999999,552.92875,28.161249999999995,2466.1525,1647.345,2201.135
23.6,1215.595,107.17125,3.3737499999999727,1590.6875,776.1212499999999,551.55375,28.161249999999995,2465.4025,1647.345,2200.26
23.7,1218.345,108.17125,3.3737499999999727,1589.1875,773.2462499999999,550.05375,28.411249999999995,2464.5275,1647.22,2199.135
23.8,1220.97,108.79625,3.3737499999999727,1587.5625,770.4962499999999,548.55375,28.411249999999995,2463.7775,1647.095,2198.135
