time(s),F1,F2,F3,F4,F5,F6,F7,F8,F9,F10
10.0,2.258749999999964,1.3012499999999818,0.2937500000000455,8.4537499999999,-3.617500000000064,-4.0637499999998,-0.1425000000000125,7.619999999999891,3.0137500000000728,2.868750000000091
10.1,2.383749999999964,1.3012499999999818,0.1687500000000454,8.3287499999999,-3.867500000000064,-4.1887499999998,-0.1425000000000125,7.494999999999891,3.1387500000000728,2.868750000000091
10.2,2.383749999999964,1.4262499999999818,0.0437500000000454,8.3287499999999,-3.867500000000064,-4.3137499999998,-0.0175000000000125,7.494999999999891,3.5137500000000728,3.118750000000091
10.3,2.383749999999964,1.4262499999999818,-0.0812499999999545,8.2037499999999,-3.992500000000064,-4.4387499999998,0.1074999999999875,7.494999999999891,3.7637500000000728,3.243750000000091
10.4,2.508749999999964,1.4262499999999818,-0.0812499999999545,8.2037499999999,-3.992500000000064,-4.4387499999998,-0.0175000000000125,7.494999999999891,3.8887500000000728,3.493750000000091
10.5,2.383749999999964,1.5512499999999818,-0.2062499999999545,8.0787499999999,-4.117500000000064,-4.4387499999998,-0.0175000000000125,7.494999999999891,4.263750000000073,3.743750000000091
10.6,2.508749999999964,1.4262499999999818,-0.2062499999999545,8.0787499999999,-4.242500000000064,-4.5637499999998,-0.0175000000000125,7.494999999999891,4.388750000000073,4.118750000000091
10.7,2.633749999999964,1.4262499999999818,-0.2062499999999545,7.9537499999999,-4.117500000000064,-4.4387499999998,-0.1425000000000125,7.494999999999891,4.638750000000073,4.868750000000091
10.8,2.633749999999964,1.5512499999999818,-0.3312499999999545,8.0787499999999,-3.992500000000064,-4.4387499999998,-0.0175000000000125,7.369999999999891,4.888750000000073,6.368750000000091
10.9,2.883749999999964,1.5512499999999818,-0.3312499999999545,8.2037499999999,-3.617500000000064,-4.3137499999998,-0.0175000000000125,7.369999999999891,5.138750000000073,8.743750000000091
11.0,3.133749999999964,1.6762499999999818,-0.4562499999999545,8.5787499999999,-2.867500000000064,-3.8137499999998,-0.0175000000000125,7.619999999999891,5.388750000000073,12.993750000000093
11.1,3.633749999999964,1.6762499999999818,-0.4562499999999545,9.4537499999999,-1.4925000000000637,-2.9387499999998,0.1074999999999875,7.869999999999891,5.888750000000073,19.61875000000009
11.2,4.383749999999964,1.6762499999999818,-0.4562499999999545,11.2037499999999,0.8824999999999363,-1.5637499999998,0.3574999999999875,8.61999999999989,7.013750000000073,29.24375000000009
11.3,5.258749999999964,1.8012499999999818,-0.4562499999999545,14.2037499999999,4.007499999999936,0.6862500000002001,0.3574999999999875,10.11999999999989,8.888750000000073,42.49375000000009
11.4,6.633749999999964,1.8012499999999818,-0.5812499999999545,18.8287499999999,8.132499999999936,3.9362500000002,0.3574999999999875,12.61999999999989,12.138750000000073,58.99375000000009
11.5,8.133749999999964,1.9262499999999816,-0.5812499999999545,25.7037499999999,13.007499999999936,8.0612500000002,0.6074999999999875,16.86999999999989,17.138750000000073,79.61875000000009
11.6,10.258749999999964,2.051249999999982,-0.5812499999999545,34.9537499999999,18.882499999999936,13.1862500000002,0.7324999999999875,23.36999999999989,24.513750000000076,105.11875000000008
11.7,12.508749999999964,2.176249999999982,-0.5812499999999545,47.0787499999999,25.382499999999936,19.3112500000002,0.7324999999999875,32.49499999999989,34.76375000000007,136.1187500000001
11.8,15.383749999999964,2.301249999999982,-0.5812499999999545,62.4537499999999,32.882499999999936,26.4362500000002,0.9824999999999876,44.99499999999989,48.51375000000007,174.2437500000001
11.9,18.633749999999964,2.551249999999982,-0.7062499999999545,81.2037499999999,41.257499999999936,34.6862500000002,1.2324999999999875,61.74499999999989,65.76375000000007,219.2437500000001
12.0,22.383749999999964,2.801249999999982,-0.5812499999999545,103.2037499999999,50.382499999999936,43.4362500000002,1.4824999999999875,82.74499999999989,86.63875000000007,271.1187500000001
12.1,26.633749999999964,3.051249999999982,-0.5812499999999545,128.9537499999999,60.507499999999936,53.0612500000002,1.7324999999999875,109.11999999999988,111.26375000000009,331.1187500000001
12.2,31.258749999999964,3.301249999999982,-0.7062499999999545,158.2037499999999,71.63249999999994,63.1862500000002,1.8574999999999875,141.1199999999999,138.76375000000007,397.6187500000001
12.3,36.38374999999997,3.676249999999982,-0.5812499999999545,190.3287499999999,83.38249999999994,73.6862500000002,2.1074999999999875,178.4949999999999,168.88875000000007,469.2437500000001
12.4,42.00874999999997,4.051249999999982,-0.7062499999999545,226.3287499999999,96.00749999999994,84.8112500000002,2.3574999999999875,222.2449999999999,201.51375000000007,545.8687500000001
12.5,48.13374999999997,4.426249999999982,-0.7062499999999545,265.3287499999999,109.38249999999994,96.4362500000002,2.4824999999999875,271.9949999999999,236.13875000000007,625.6187500000001
12.6,54.63374999999997,4.801249999999982,-0.7062499999999545,306.7037499999999,123.38249999999994,108.3112500000002,2.6074999999999875,326.8699999999999,271.8887500000001,707.2437500000001
12.7,61.50874999999997,5.176249999999982,-0.7062499999999545,351.3287499999999,138.13249999999994,120.8112500000002,2.9824999999999875,388.1199999999999,309.5137500000001,790.7437500000001
12.8,68.88374999999996,5.676249999999982,-0.5812499999999545,398.0787499999999,153.38249999999994,133.5612500000002,3.2324999999999875,454.6199999999999,348.1387500000001,873.1187500000001
12.9,76.63374999999996,6.051249999999982,-0.5812499999999545,446.2037499999999,169.13249999999994,146.3112500000002,3.4824999999999875,525.4949999999999,387.3887500000001,952.86875
13.0,84.88374999999996,6.676249999999982,-0.5812499999999545,496.2037499999999,185.50749999999996,159.4362500000002,3.607499999999988,601.6199999999999,427.6387500000001,1030.49375
13.1,93.50874999999996,7.176249999999982,-0.5812499999999545,547.2037499999999,202.50749999999996,172.5612500000002,3.857499999999988,681.7449999999999,468.2637500000001,1104.74375
13.2,102.38374999999996,7.676249999999982,-0.5812499999999545,598.0787499999999,219.63249999999996,185.5612500000002,4.107499999999988,764.2449999999999,508.5137500000001,1174.61875
13.3,111.75874999999996,8.301249999999982,-0.5812499999999545,649.5787499999999,237.50749999999996,198.6862500000002,4.357499999999988,849.8699999999999,549.0137500000001,1241.61875
13.4,121.50874999999996,8.801249999999982,-0.5812499999999545,700.5787499999999,255.75749999999996,211.6862500000002,4.732499999999988,937.245,589.1387500000001,1304.36875
13.5,131.50874999999996,9.426249999999982,-0.5812499999999545,750.2037499999999,273.88249999999994,224.4362500000002,4.857499999999988,1024.12,628.3887500000001,1361.74375
13.6,141.88374999999996,9.926249999999982,-0.5812499999999545,799.2037499999999,292.50749999999994,237.3112500000002,4.982499999999988,1111.62,667.3887500000001,1414.86875
13.7,152.63374999999996,10.676249999999982,-0.5812499999999545,846.7037499999999,311.13249999999994,249.9362500000002,5.232499999999988,1197.995,705.7637500000001,1463.61875
13.8,163.63374999999996,11.176249999999982,-0.5812499999999545,892.0787499999999,329.75749999999994,262.1862500000002,5.482499999999988,1281.495,742.8887500000001,1508.11875
13.9,174.88374999999996,11.801249999999982,-0.5812499999999545,935.82875,348.50749999999994,274.4362500000002,5.732499999999988,1363.37,779.5137500000001,1549.36875
14.0,186.50875,12.551249999999982,-0.4562499999999545,977.57875,367.1325,286.3112500000002,5.857499999999988,1441.87,815.0137500000001,1587.24375
14.1,198.25875,13.176249999999982,-0.4562499999999545,1016.82875,385.5075,297.8112500000002,6.232499999999988,1515.87,849.2637500000001,1622.36875
14.2,210.25875,13.926249999999982,-0.4562499999999545,1054.32875,403.7575,309.1862500000002,6.482499999999988,1586.37,882.8887500000001,1655.74375
14.3,222.50875,14.551249999999982,-0.4562499999999545,1089.70375,421.7575,320.0612500000002,6.607499999999988,1652.62,915.26375,1686.99375
14.4,234.88375,15.301249999999982,-0.3312499999999545,1122.45375,439.2575,330.6862500000002,6.857499999999988,1713.87,946.13875,1715.49375
14.5,247.50875,16.051249999999982,-0.4562499999999545,1153.70375,456.6325,340.9362500000002,6.982499999999988,1771.12,976.26375,1742.36875
14.6,260.38375,16.801249999999982,-0.3312499999999545,1182.45375,473.3825,350.8112500000002,7.2324999999999875,1823.62,1005.01375,1767.49375
14.7,273.25875,17.551249999999982,-0.3312499999999545,1209.70375,490.0075,360.3112500000002,7.4824999999999875,1872.495,1032.88875,1791.36875
14.8,286.50875,18.301249999999985,-0.2062499999999545,1235.07875,506.0075,369.5612500000002,7.4824999999999875,1917.37,1059.63875,1813.86875
14.9,299.50875,19.051249999999985,-0.2062499999999545,1258.45375,521.5074999999999,378.3112500000002,7.6074999999999875,1958.12,1085.01375,1834.61875
15.0,312.88375,19.926249999999985,-0.0812499999999545,1280.57875,536.7574999999999,386.6862500000002,7.9824999999999875,1995.87,1109.63875,1853.99375
15.1,326.38375,20.676249999999985,-0.2062499999999545,1301.07875,551.5074999999999,394.8112500000002,7.9824999999999875,2030.37,1133.13875,1871.86875
15.2,339.75875,21.426249999999985,-0.0812499999999545,1319.95375,565.5074999999999,402.4362500000002,8.357499999999987,2061.62,1155.51375,1888.24375
15.3,353.38375,22.301249999999985,-0.0812499999999545,1337.82875,579.1324999999999,409.9362500000002,8.357499999999987,2090.62,1177.01375,1903.49375
15.4,367.00875,23.051249999999985,0.0437500000000454,1354.32875,592.3824999999999,416.9362500000002,8.482499999999987,2117.12,1197.63875,1917.61875
15.5,380.63375,23.926249999999985,0.0437500000000454,1369.57875,604.8824999999999,423.5612500000002,8.732499999999987,2141.245,1217.13875,1930.74375
15.6,394.38375,24.676249999999985,0.0437500000000454,1383.95375,617.0074999999999,429.9362500000002,8.982499999999987,2163.62,1235.88875,1942.99375
15.7,408.13375,25.551249999999985,0.0437500000000454,1397.32875,628.6324999999999,436.0612500000002,9.107499999999987,2184.12,1253.88875,1954.61875
15.8,421.75875,26.426249999999985,0.1687500000000454,1409.70375,639.6324999999999,441.6862500000002,9.232499999999987,2202.87,1270.76375,1965.24375
15.9,435.50875,27.176249999999985,0.1687500000000454,1421.32875,650.2574999999999,447.1862500000002,9.482499999999987,2220.245,1287.13875,1975.36875
16.0,449.13375,28.051249999999985,0.1687500000000454,1432.07875,660.3824999999999,452.3112500000002,9.607499999999987,2236.37,1302.63875,1984.86875
16.1,462.75875,28.926249999999985,0.1687500000000454,1442.07875,670.0074999999999,457.0612500000002,9.732499999999987,2250.995,1317.38875,1993.61875
16.2,476.38375,29.801249999999985,0.2937500000000455,1451.45375,679.1324999999999,461.6862500000002,9.857499999999987,2264.62,1331.51375,2002.11875
16.3,490.00875,30.676249999999985,0.2937500000000455,1460.20375,687.8824999999999,465.9362500000002,9.982499999999987,2277.245,1345.13875,2010.11875
16.4,503.38375,31.551249999999985,0.2937500000000455,1468.20375,696.1324999999999,470.0612500000002,9.982499999999987,2288.87,1357.88875,2017.49375
16.5,517.00875,32.42624999999998,0.2937500000000455,1475.82875,703.8824999999999,473.8112500000002,10.232499999999987,2299.62,1370.26375,2024.49375
16.6,530.25875,33.17624999999998,0.4187500000000455,1482.82875,711.2574999999999,477.3112500000002,10.482499999999987,2309.62,1381.88875,2031.24375
16.7,543.50875,34.05124999999998,0.4187500000000455,1489.45375,718.1324999999999,480.5612500000002,10.482499999999987,2318.87,1393.01375,2037.36875
16.8,556.75875,35.05124999999998,0.4187500000000455,1495.57875,724.6324999999999,483.6862500000002,10.607499999999987,2327.495,1403.63875,2043.36875
16.9,569.88375,35.80124999999998,0.4187500000000455,1501.32875,730.7574999999999,486.5612500000002,10.732499999999987,2335.495,1413.88875,2048.99375
17.0,582.75875,36.80124999999998,0.4187500000000455,1506.45375,736.5074999999999,489.1862500000002,10.857499999999987,2342.87,1423.51375,2054.11875
17.1,595.63375,37.55124999999998,0.5437500000000455,1511.57875,741.8824999999999,491.5612500000002,10.982499999999987,2349.745,1432.76375,2059.24375
17.2,608.38375,38.42624999999998,0.5437500000000455,1516.07875,746.7574999999999,493.9362500000002,10.982499999999987,2356.12,1441.51375,2063.86875
17.3,621.00875,39.30124999999998,0.5437500000000455,1520.32875,751.3824999999999,495.9362500000002,11.232499999999987,2362.12,1449.88875,2068.36875
17.4,633.50875,40.30124999999998,0.6687500000000455,1524.32875,755.6324999999999,497.8112500000002,11.357499999999987,2367.62,1457.88875,2072.61875
17.5,645.88375,41.17624999999998,0.6687500000000455,1528.07875,759.6324999999999,499.5612500000002,11.357499999999987,2372.745,1465.63875,2076.49375
17.6,657.88375,42.05124999999998,0.6687500000000455,1531.32875,763.2574999999999,501.0612500000002,11.482499999999987,2377.37,1472.88875,2080.24375
17.7,670.00875,42.92624999999998,0.6687500000000455,1534.45375,766.6324999999999,502.4362500000002,11.607499999999987,2381.87,1479.76375,2083.74375
17.8,681.75875,43.80124999999998,0.7937500000000455,1537.32875,769.6324999999999,503.5612500000002,11.732499999999987,2385.995,1486.38875,2086.86875
17.9,693.50875,44.67624999999998,0.7937500000000455,1539.95375,772.3824999999999,504.6862500000002,11.732499999999987,2389.745,1492.63875,2089.99375
18.0,705.13375,45.67624999999998,0.7937500000000455,1542.32875,774.8824999999999,505.5612500000002,11.857499999999987,2393.245,1498.63875,2092.74375
18.1,716.50875,46.55124999999998,0.7937500000000455,1544.57875,777.0074999999999,506.4362500000002,12.107499999999987,2396.62,1504.26375,2095.36875
18.2,727.75875,47.42624999999998,0.9187500000000456,1546.57875,779.0074999999999,507.0612500000002,12.107499999999987,2399.62,1509.76375,2097.74375
18.3,738.88375,48.17624999999998,0.9187500000000456,1548.32875,780.7574999999999,507.5612500000002,11.982499999999987,2402.37,1515.01375,2099.86875
18.4,749.63375,49.17624999999998,0.9187500000000456,1549.95375,782.2574999999999,507.9362500000002,12.107499999999987,2404.995,1519.88875,2101.86875
18.5,760.50875,49.92624999999998,1.0437500000000457,1551.45375,783.5074999999999,508.1862500000002,12.232499999999987,2407.37,1524.63875,2103.86875
18.6,771.00875,50.80124999999998,1.0437500000000457,1552.70375,784.5074999999999,508.3112500000002,12.357499999999987,2409.62,1529.01375,2105.49375
18.7,781.38375,51.80124999999998,1.0437500000000457,1553.82875,785.1324999999999,508.4362500000002,12.357499999999987,2411.62,1533.38875,2107.11875
18.8,791.63375,52.67624999999998,1.0437500000000457,1554.70375,785.7574999999999,508.3112500000002,12.357499999999987,2413.495,1537.38875,2108.61875
18.9,801.63375,53.55124999999998,1.0437500000000457,1555.57875,786.1324999999999,508.1862500000002,12.357499999999987,2415.12,1541.26375,2109.86875
19.0,811.38375,54.30124999999998,1.1687500000000457,1556.20375,786.3824999999999,507.9362500000002,12.607499999999987,2416.745,1544.88875,2111.11875
19.1,821.13375,55.30124999999998,1.1687500000000457,1556.70375,786.3824999999999,507.5612500000002,12.607499999999987,2418.245,1548.38875,2112.24375
19.2,830.63375,56.17624999999998,1.1687500000000457,1557.07875,786.2574999999999,507.1862500000002,12.607499999999987,2419.495,1551.88875,2113.24375
19.3,839.88375,57.05124999999998,1.2937500000000457,1557.32875,785.8824999999999,506.5612500000002,12.732499999999987,2420.62,1555.01375,2114.11875
19.4,849.00875,57.80124999999998,1.2937500000000457,1557.45375,785.5074999999999,505.8112500000002,12.982499999999987,2421.62,1557.88875,2114.86875
19.5,858.00875,58.67624999999998,1.2937500000000457,1557.45375,784.8824999999999,505.1862500000002,12.982499999999987,2422.495,1560.88875,2115.49375
19.6,866.75875,59.55124999999998,1.2937500000000457,1557.32875,784.1324999999999,504.4362500000002,12.982499999999987,2423.37,1563.51375,2115.99375
19.7,875.38375,60.42624999999998,1.4187500000000457,1557.07875,783.2574999999999,503.5612500000002,12.982499999999987,2423.995,1566.01375,2116.24375
19.8,883.88375,61.17624999999998,1.4187500000000457,1556.82875,782.1324999999999,502.6862500000002,13.107499999999987,2424.62,1568.38875,2116.61875
19.9,892.00875,62.05124999999998,1.4187500000000457,1556.45375,781.0074999999999,501.6862500000002,13.107499999999987,2425.12,1570.63875,2116.74375
20.0,900.13375,62.92624999999998,1.4187500000000457,1555.82875,779.6324999999999,500.6862500000002,13.232499999999987,2425.495,1572.88875,2116.86875
20.1,908.00875,63.67624999999998,1.5437500000000457,1555.20375,778.1324999999999,499.5612500000002,13.232499999999987,2425.87,1574.88875,2116.74375
20.2,915.75875,64.55124999999998,1.5437500000000457,1554.57875,776.3824999999999,498.5612500000002,13.357499999999987,2426.12,1576.76375,2116.74375
20.3,923.38375,65.30124999999998,1.5437500000000457,1553.82875,774.6324999999999,497.3112500000002,13.357499999999987,2426.245,1578.63875,2116.49375
20.4,930.75875,66.17624999999998,1.6687500000000457,1552.95375,772.7574999999999,496.0612500000002,13.357499999999987,2426.37,1580.38875,2116.36875
20.5,937.88375,66.92624999999998,1.6687500000000457,1552.07875,770.7574999999999,494.8112500000002,13.482499999999987,2426.245,1581.88875,2116.11875
20.6,945.00875,67.67624999999998,1.6687500000000457,1551.07875,768.5074999999999,493.4362500000002,13.482499999999987,2426.245,1583.38875,2115.86875
20.7,951.88375,68.55124999999998,1.7937500000000457,1550.07875,766.3824999999999,492.1862500000002,13.482499999999987,2426.12,1584.88875,2115.49375
20.8,958.50875,69.30124999999998,1.7937500000000457,1548.95375,764.1324999999999,490.6862500000002,13.607499999999987,2425.995,1586.13875,2115.11875
20.9,965.13375,70.17624999999998,1.7937500000000457,1547.82875,761.6324999999999,489.3112500000002,13.607499999999987,2425.745,1587.38875,2114.49375
21.0,971.50875,70.92624999999998,1.7937500000000457,1546.57875,759.2574999999999,487.8112500000002,13.607499999999987,2425.495,1588.51375,2113.86875
21.1,977.75875,71.67624999999998,1.7937500000000457,1545.20375,756.7574999999999,486.1862500000002,13.607499999999987,2425.12,1589.63875,2113.24375
21.2,983.88375,72.42624999999998,1.9187500000000453,1543.82875,754.1324999999999,484.6862500000002,13.732499999999987,2424.745,1590.51375,2112.36875
21.3,989.75875,73.17624999999998,1.9187500000000453,1542.32875,751.5074999999999,483.1862500000002,13.732499999999987,2424.245,1591.38875,2111.49375
21.4,995.50875,74.05124999999998,1.9187500000000453,1540.95375,748.7574999999999,481.5612500000002,13.732499999999987,2423.745,1592.26375,2110.36875
21.5,1001.13375,74.67624999999998,1.9187500000000453,1539.32875,746.0074999999999,479.9362500000002,13.732499999999987,2423.245,1593.01375,2109.49375
21.6,1006.50875,75.42624999999998,2.043750000000045,1537.70375,743.1324999999999,478.3112500000002,13.732499999999987,2422.62,1593.63875,2108.36875
21.7,1011.88375,76.17624999999998,2.043750000000045,1536.07875,740.2574999999999,476.5612500000002,13.732499999999987,2421.995,1594.13875,2107.36875
21.8,1017.00875,77.05124999999998,2.043750000000045,1534.32875,737.2574999999999,474.8112500000002,13.857499999999987,2421.37,1594.63875,2106.24375
21.9,1022.00875,77.67624999999998,2.043750000000045,1532.45375,734.1324999999999,473.0612500000002,13.857499999999987,2420.62,1595.13875,2105.11875
22.0,1026.88375,78.42624999999998,2.043750000000045,1530.70375,731.0074999999999,471.3112500000002,13.857499999999987,2419.87,1595.51375,2103.99375
22.1,1031.63375,79.05124999999998,2.043750000000045,1528.82875,727.8824999999999,469.4362500000002,13.732499999999987,2418.995,1595.76375,2102.74375
22.2,1036.25875,79.80124999999998,2.168750000000045,1526.82875,724.6324999999999,467.5612500000002,13.982499999999987,2418.12,1596.13875,2101.49375
22.3,1040.75875,80.55124999999998,2.168750000000045,1524.82875,721.5074999999999,465.6862500000002,13.982499999999987,2417.245,1596.38875,2100.11875
