time(s),F1,F2,F3,F4,F5,F6,F7,F8,F9,F10
10.0,1.5787499999999,0.5499999999999545,0.1075000000000727,2.1400000000001,-2.411250000000109,-2.9099999999998545,-0.0737499999999897,4.011250000000018,1.0150000000001,-1.34375
10.1,1.5787499999999,0.5499999999999545,0.1075000000000727,2.0150000000001,-2.536250000000109,-3.1599999999998545,-0.0737499999999897,4.011250000000018,0.7650000000001,-1.59375
10.2,1.5787499999999,0.5499999999999545,0.1075000000000727,2.0150000000001,-2.661250000000109,-3.1599999999998545,-0.0737499999999897,3.886250000000018,0.7650000000001,-1.84375
10.3,1.5787499999999,0.6749999999999545,0.1075000000000727,1.8900000000001,-2.786250000000109,-3.2849999999998545,0.0512500000000102,3.761250000000018,0.6400000000001,-1.96875
10.4,1.5787499999999,0.6749999999999545,0.1075000000000727,1.7650000000001,-2.786250000000109,-3.2849999999998545,0.0512500000000102,3.761250000000018,0.6400000000001,-2.09375
10.5,1.5787499999999,0.6749999999999545,0.1075000000000727,1.6400000000001,-2.911250000000109,-3.4099999999998545,0.0512500000000102,3.761250000000018,0.5150000000001,-2.34375
10.6,1.7037499999999,0.6749999999999545,0.1075000000000727,1.5150000000001,-2.911250000000109,-3.5349999999998545,-0.0737499999999897,3.636250000000018,0.3900000000001,-2.21875
10.7,1.7037499999999,0.6749999999999545,0.1075000000000727,1.5150000000001,-2.911250000000109,-3.5349999999998545,0.1762500000000102,3.636250000000018,0.3900000000001,-1.96875
10.8,1.7037499999999,0.7999999999999545,0.1075000000000727,1.3900000000001,-2.911250000000109,-3.4099999999998545,0.0512500000000102,3.511250000000018,0.2650000000001,-0.96875
10.9,1.9537499999999,0.7999999999999545,0.1075000000000727,1.5150000000001,-2.786250000000109,-3.2849999999998545,0.1762500000000102,3.511250000000018,0.2650000000001,1.28125
11.0,2.3287499999999,0.6749999999999545,0.1075000000000727,1.6400000000001,-2.286250000000109,-3.0349999999998545,0.0512500000000102,3.636250000000018,0.2650000000001,5.53125
11.1,2.7037499999999,0.7999999999999545,0.1075000000000727,2.1400000000001,-1.4112500000001091,-2.4099999999998545,0.1762500000000102,3.886250000000018,0.5150000000001,12.78125
11.2,3.4537499999999,0.7999999999999545,0.2325000000000727,2.8900000000001,0.0887499999998908,-1.2849999999998545,0.1762500000000102,4.636250000000018,1.2650000000001,23.90625
11.3,4.4537499999999,0.7999999999999545,0.1075000000000727,4.6400000000001,2.588749999999891,0.7150000000001455,0.3012500000000102,6.511250000000018,2.8900000000001,38.65625
11.4,5.9537499999999,0.7999999999999545,0.2325000000000727,7.5150000000001,6.088749999999891,3.7150000000001455,0.5512500000000102,10.011250000000018,6.0150000000001,57.78125
11.5,7.8287499999999,0.9249999999999544,0.1075000000000727,12.2650000000001,10.58874999999989,7.7150000000001455,0.5512500000000102,15.511250000000018,11.6400000000001,82.53125
11.6,10.2037499999999,0.9249999999999544,0.2325000000000727,19.3900000000001,15.83874999999989,13.090000000000146,0.8012500000000102,23.636250000000015,20.6400000000001,114.40625
11.7,13.0787499999999,1.0499999999999543,0.2325000000000727,28.8900000000001,22.08874999999989,19.340000000000146,0.9262500000000102,35.01125000000002,33.1400000000001,153.90625
11.8,16.5787499999999,1.1749999999999543,0.2325000000000727,41.5150000000001,29.46374999999989,26.465000000000146,1.1762500000000102,50.38625000000002,49.7650000000001,202.15625
11.9,20.7037499999999,1.1749999999999543,0.2325000000000727,57.1400000000001,37.71374999999989,34.340000000000146,1.4262500000000102,70.38625000000002,70.5150000000001,258.65625
12.0,25.2037499999999,1.4249999999999543,0.2325000000000727,76.3900000000001,47.08874999999989,43.09000000000015,1.5512500000000102,95.76125000000002,95.2650000000001,324.78125
12.1,30.5787499999999,1.6749999999999543,0.2325000000000727,99.2650000000001,57.46374999999989,52.59000000000015,1.8012500000000102,127.13625000000002,123.5150000000001,399.15625
12.2,36.3287499999999,1.9249999999999543,0.2325000000000727,125.7650000000001,68.71374999999989,62.84000000000015,2.1762500000000102,164.13625000000002,154.5150000000001,479.15625
12.3,42.8287499999999,2.1749999999999545,0.2325000000000727,156.2650000000001,80.96374999999989,73.84000000000015,2.1762500000000102,207.88625,188.5150000000001,564.78125
12.4,49.9537499999999,2.5499999999999545,0.2325000000000727,190.7650000000001,93.96374999999988,85.59000000000015,2.5512500000000102,257.88625,225.0150000000001,654.15625
12.5,57.4537499999999,2.9249999999999545,0.2325000000000727,228.6400000000001,107.71374999999988,97.84000000000016,2.9262500000000102,314.01125,263.3900000000001,744.90625
12.6,65.7037499999999,3.2999999999999545,0.2325000000000727,270.3900000000001,122.58874999999988,110.84000000000016,3.0512500000000102,377.01125,304.2650000000001,837.53125
12.7,74.5787499999999,3.6749999999999545,0.2325000000000727,315.5150000000001,138.4637499999999,124.21500000000016,3.1762500000000102,446.38625,346.7650000000001,928.78125
12.8,83.8287499999999,4.1749999999999545,0.2325000000000727,363.0150000000001,155.0887499999999,137.84000000000017,3.5512500000000102,520.76125,390.0150000000001,1016.15625
12.9,93.8287499999999,4.6749999999999545,0.2325000000000727,413.7650000000001,172.8387499999999,151.96500000000017,3.80125000000001,601.13625,434.2650000000001,1099.53125
13.0,104.3287499999999,5.1749999999999545,0.2325000000000727,466.3900000000001,191.3387499999999,166.34000000000017,4.05125000000001,686.01125,478.8900000000001,1177.03125
13.1,115.3287499999999,5.7999999999999545,0.2325000000000727,520.1400000000001,210.3387499999999,180.71500000000012,4.30125000000001,773.63625,522.8900000000001,1247.90625
13.2,126.8287499999999,6.1749999999999545,0.3575000000000727,575.2650000000001,230.0887499999999,195.21500000000012,4.55125000000001,864.51125,567.1400000000001,1314.15625
13.3,138.7037499999999,6.7999999999999545,0.3575000000000727,630.8900000000001,250.4637499999999,209.96500000000012,4.67625000000001,956.88625,610.8900000000001,1375.28125
13.4,151.0787499999999,7.424999999999954,0.3575000000000727,685.7650000000001,270.9637499999999,224.46500000000012,5.05125000000001,1048.13625,653.6400000000001,1430.40625
13.5,163.8287499999999,8.174999999999955,0.3575000000000727,740.5150000000001,292.0887499999999,239.21500000000012,5.30125000000001,1139.63625,695.8900000000001,1481.53125
13.6,177.0787499999999,8.674999999999955,0.3575000000000727,794.0150000000001,313.3387499999999,253.96500000000012,5.55125000000001,1229.01125,737.3900000000001,1528.53125
13.7,190.5787499999999,9.424999999999956,0.3575000000000727,845.5150000000001,334.3387499999999,268.34000000000015,5.80125000000001,1314.51125,777.3900000000001,1571.78125
13.8,204.5787499999999,10.174999999999956,0.4825000000000727,895.7650000000001,355.7137499999999,282.71500000000015,6.05125000000001,1397.38625,816.6400000000001,1612.40625
13.9,218.9537499999999,10.799999999999956,0.4825000000000727,943.765,377.2137499999999,296.84000000000015,6.30125000000001,1475.88625,854.7650000000001,1650.53125
14.0,233.3287499999999,11.549999999999956,0.4825000000000727,989.14,398.3387499999999,310.59000000000015,6.42625000000001,1549.13625,891.5150000000001,1685.65625
14.1,248.2037499999999,12.299999999999956,0.4825000000000727,1032.515,419.4637499999999,324.34000000000015,6.67625000000001,1618.13625,927.265,1718.03125
14.2,263.4537499999999,13.174999999999956,0.4825000000000727,1073.39,440.4637499999999,337.59000000000015,6.92625000000001,1682.26125,961.765,1748.03125
14.3,278.7037499999999,13.924999999999956,0.6075000000000728,1111.515,460.9637499999999,350.46500000000015,7.30125000000001,1740.88625,994.64,1775.28125
14.4,294.3287499999999,14.674999999999956,0.6075000000000728,1147.765,481.2137499999999,363.09000000000015,7.30125000000001,1795.38625,1026.515,1800.53125
14.5,310.2037499999999,15.549999999999956,0.6075000000000728,1181.515,501.0887499999999,375.46500000000015,7.55125000000001,1845.26125,1057.14,1823.78125
14.6,326.0787499999999,16.424999999999955,0.6075000000000728,1212.64,520.3387499999999,387.21500000000015,7.80125000000001,1890.26125,1086.015,1845.15625
14.7,342.2037499999999,17.299999999999955,0.7325000000000728,1242.14,539.2137499999999,398.71500000000015,7.92625000000001,1931.76125,1114.015,1865.40625
14.8,358.5787499999999,18.174999999999955,0.7325000000000728,1269.515,557.7137499999999,409.84000000000015,8.05125000000001,1969.63625,1140.89,1884.28125
14.9,374.8287499999999,19.049999999999955,0.7325000000000728,1294.64,575.4637499999999,420.34000000000015,8.30125000000001,2003.76125,1166.14,1901.78125
15.0,391.3287499999999,19.924999999999955,0.8575000000000728,1318.265,592.8387499999999,430.71500000000015,8.55125000000001,2035.01125,1190.515,1918.40625
15.1,407.7037499999999,20.799999999999955,0.8575000000000728,1340.015,609.3387499999999,440.34000000000015,8.67625000000001,2063.38625,1213.64,1933.78125
15.2,424.3287499999999,21.799999999999955,0.9825000000000728,1360.515,625.5887499999999,449.84000000000015,8.92625000000001,2089.51125,1235.89,1948.40625
15.3,440.9537499999999,22.799999999999955,0.9825000000000728,1379.515,641.2137499999999,458.84000000000015,9.05125000000001,2113.26125,1257.14,1962.03125
15.4,457.5787499999999,23.674999999999955,0.9825000000000728,1397.015,656.0887499999999,467.34000000000015,9.30125000000001,2134.88625,1277.14,1974.78125
15.5,474.2037499999999,24.674999999999955,0.9825000000000728,1413.265,670.5887499999999,475.59000000000015,9.42625000000001,2154.88625,1296.265,1986.78125
15.6,490.8287499999999,25.674999999999955,1.1075000000000728,1428.515,684.4637499999999,483.34000000000015,9.67625000000001,2173.01125,1314.64,1997.90625
15.7,507.3287499999999,26.674999999999955,1.1075000000000728,1442.515,697.5887499999999,490.71500000000015,9.67625000000001,2189.63625,1331.765,2008.15625
15.8,523.9537499999999,27.674999999999955,1.2325000000000728,1455.765,710.2137499999999,497.71500000000015,9.92625000000001,2204.88625,1348.265,2018.15625
15.9,540.4537499999999,28.799999999999955,1.2325000000000728,1468.015,722.3387499999999,504.34000000000015,10.17625000000001,2219.01125,1364.015,2027.53125
16.0,556.7037499999999,29.674999999999955,1.2325000000000728,1479.265,733.7137499999999,510.71500000000015,10.30125000000001,2231.88625,1378.89,2036.53125
16.1,573.0787499999999,30.674999999999955,1.2325000000000728,1490.015,744.5887499999999,516.5900000000001,10.42625000000001,2243.76125,1393.14,2044.90625
16.2,589.2037499999999,31.674999999999955,1.3575000000000728,1499.89,755.0887499999999,522.3400000000001,10.55125000000001,2254.76125,1406.765,2052.65625
16.3,605.3287499999999,32.799999999999955,1.3575000000000728,1509.14,764.7137499999999,527.5900000000001,10.80125000000001,2264.76125,1419.64,2060.03125
16.4,621.2037499999999,33.924999999999955,1.3575000000000728,1517.765,774.0887499999999,532.5900000000001,10.92625000000001,2274.13625,1431.89,2066.90625
16.5,637.0787499999999,34.924999999999955,1.4825000000000728,1525.89,782.9637499999999,537.3400000000001,11.05125000000001,2282.76125,1443.64,2073.53125
16.6,652.7037499999999,36.04999999999996,1.6075000000000728,1533.265,791.2137499999999,541.7150000000001,11.05125000000001,2290.63625,1454.765,2079.65625
16.7,668.2037499999999,37.04999999999996,1.6075000000000728,1540.39,799.0887499999999,545.9650000000001,11.17625000000001,2298.01125,1465.265,2085.40625
16.8,683.5787499999999,38.17499999999996,1.6075000000000728,1547.015,806.4637499999999,549.7150000000001,11.30125000000001,2304.88625,1475.515,2090.78125
16.9,698.7037499999999,39.17499999999996,1.7325000000000728,1553.14,813.3387499999999,553.3400000000001,11.42625000000001,2311.13625,1485.015,2095.90625
17.0,713.8287499999999,40.29999999999996,1.7325000000000728,1558.89,819.9637499999999,556.8400000000001,11.55125000000001,2316.88625,1494.14,2100.65625
17.1,728.5787499999999,41.42499999999996,1.7325000000000728,1564.265,826.0887499999999,559.9650000000001,11.67625000000001,2322.38625,1502.89,2105.15625
17.2,743.0787499999999,42.42499999999996,1.7325000000000728,1569.14,831.7137499999999,562.9650000000001,11.80125000000001,2327.26125,1511.14,2109.40625
17.3,757.5787499999999,43.54999999999996,1.8575000000000728,1573.89,837.0887499999999,565.5900000000001,11.92625000000001,2332.01125,1519.015,2113.28125
17.4,771.9537499999999,44.67499999999996,1.8575000000000728,1578.265,842.0887499999999,568.2150000000001,12.05125000000001,2336.26125,1526.64,2117.03125
17.5,785.8287499999999,45.79999999999996,1.9825000000000728,1582.39,846.7137499999999,570.4650000000001,12.17625000000001,2340.26125,1533.64,2120.40625
17.6,799.7037499999999,46.79999999999996,1.9825000000000728,1586.14,850.9637499999999,572.5900000000001,12.42625000000001,2343.88625,1540.64,2123.65625
17.7,813.3287499999999,48.04999999999996,2.1075000000000728,1589.765,854.8387499999999,574.7150000000001,12.42625000000001,2347.38625,1547.015,2126.65625
17.8,826.5787499999999,49.04999999999996,2.1075000000000728,1593.015,858.4637499999999,576.4650000000001,12.55125000000001,2350.51125,1553.265,2129.53125
17.9,839.8287499999999,50.17499999999996,2.1075000000000728,1596.015,861.8387499999999,578.0900000000001,12.67625000000001,2353.51125,1559.14,2132.28125
18.0,852.8287499999999,51.29999999999996,2.2325000000000728,1598.89,864.9637499999999,579.5900000000001,12.80125000000001,2356.26125,1564.765,2134.78125
18.1,865.4537499999999,52.42499999999996,2.2325000000000728,1601.515,867.7137499999999,580.9650000000001,12.92625000000001,2358.76125,1570.14,2137.15625
18.2,877.9537499999999,53.54999999999996,2.2325000000000728,1604.015,870.2137499999999,582.0900000000001,13.05125000000001,2361.13625,1575.265,2139.40625
18.3,890.0787499999999,54.54999999999996,2.3575000000000728,1606.265,872.4637499999999,583.2150000000001,13.05125000000001,2363.26125,1580.14,2141.53125
18.4,902.07875,55.79999999999996,2.3575000000000728,1608.265,874.4637499999999,584.0900000000001,13.17625000000001,2365.26125,1584.765,2143.40625
18.5,914.07875,56.79999999999996,2.4825000000000728,1610.14,876.3387499999999,585.0900000000001,13.17625000000001,2367.13625,1589.14,2145.28125
18.6,925.45375,57.92499999999996,2.4825000000000728,1611.89,877.8387499999999,585.7150000000001,13.42625000000001,2368.76125,1593.39,2146.90625
18.7,936.82875,59.17499999999996,2.4825000000000728,1613.39,879.2137499999999,586.3400000000001,13.42625000000001,2370.38625,1597.515,2148.53125
18.8,947.95375,60.17499999999996,2.6075000000000728,1614.89,880.2137499999999,586.7150000000001,13.55125000000001,2371.88625,1601.265,2149.90625
18.9,958.70375,61.29999999999996,2.6075000000000728,1616.14,881.2137499999999,587.2150000000001,13.67625000000001,2373.13625,1605.015,2151.15625
19.0,969.32875,62.42499999999996,2.7325000000000728,1617.39,881.8387499999999,587.4650000000001,13.55125000000001,2374.38625,1608.515,2152.53125
19.1,979.70375,63.54999999999996,2.7325000000000728,1618.39,882.3387499999999,587.5900000000001,13.80125000000001,2375.51125,1611.765,2153.65625
19.2,989.82875,64.67499999999995,2.7325000000000728,1619.265,882.7137499999999,587.7150000000001,13.80125000000001,2376.51125,1615.015,2154.65625
19.3,999.82875,65.79999999999995,2.8575000000000728,1620.015,882.8387499999999,587.8400000000001,13.92625000000001,2377.38625,1618.015,2155.65625
19.4,1009.57875,66.92499999999995,2.8575000000000728,1620.765,882.8387499999999,587.7150000000001,13.92625000000001,2378.26125,1620.89,2156.53125
19.5,1018.95375,68.04999999999995,2.8575000000000728,1621.265,882.7137499999999,587.7150000000001,14.05125000000001,2379.01125,1623.64,2157.28125
19.6,1028.32875,69.17499999999995,2.9825000000000728,1621.765,882.3387499999999,587.4650000000001,14.17625000000001,2379.63625,1626.265,2157.90625
19.7,1037.32875,70.17499999999995,2.9825000000000728,1622.14,882.0887499999999,587.2150000000001,14.17625000000001,2380.26125,1628.64,2158.65625
19.8,1046.07875,71.29999999999995,3.1075000000000728,1622.39,881.5887499999999,586.8400000000001,14.30125000000001,2380.76125,1631.015,2159.28125
19.9,1054.70375,72.42499999999995,3.1075000000000728,1622.64,881.0887499999999,586.4650000000001,14.30125000000001,2381.26125,1633.14,2159.78125
20.0,1063.20375,73.54999999999995,3.2325000000000728,1622.64,880.3387499999999,585.9650000000001,14.42625000000001,2381.63625,1635.39,2160.28125
20.1,1071.32875,74.54999999999995,3.2325000000000728,1622.64,879.5887499999999,585.4650000000001,14.42625000000001,2381.88625,1637.39,2160.53125
20.2,1079.32875,75.67499999999995,3.2325000000000728,1622.64,878.5887499999999,584.9650000000001,14.55125000000001,2382.26125,1639.265,2160.90625
20.3,1087.07875,76.79999999999995,3.3575000000000728,1622.515,877.5887499999999,584.2150000000001,14.80125000000001,2382.51125,1641.015,2161.15625
20.4,1094.57875,77.92499999999995,3.3575000000000728,1622.265,876.3387499999999,583.5900000000001,14.67625000000001,2382.63625,1642.64,2161.28125
20.5,1101.95375,78.79999999999995,3.4825000000000728,1621.89,875.0887499999999,582.7150000000001,14.80125000000001,2382.76125,1644.265,2161.40625
20.6,1109.20375,79.92499999999995,3.4825000000000728,1621.515,873.7137499999999,581.9650000000001,14.92625000000001,2382.76125,1645.89,2161.53125
20.7,1116.07875,81.04999999999995,3.4825000000000728,1621.015,872.3387499999999,581.0900000000001,15.17625000000001,2382.76125,1647.265,2161.53125
20.8,1122.95375,82.04999999999995,3.6075000000000728,1620.515,870.8387499999999,580.0900000000001,15.05125000000001,2382.76125,1648.64,2161.53125
20.9,1129.57875,83.17499999999995,3.6075000000000728,1619.89,869.2137499999999,579.2150000000001,15.17625000000001,2382.76125,1649.89,2161.40625
21.0,1135.95375,84.29999999999995,3.6075000000000728,1619.265,867.4637499999999,578.2150000000001,15.17625000000001,2382.51125,1651.015,2161.28125
21.1,1142.20375,85.29999999999995,3.6075000000000728,1618.515,865.8387499999999,577.0900000000001,15.17625000000001,2382.38625,1652.14,2161.03125
21.2,1148.20375,86.29999999999995,3.7325000000000728,1617.765,863.9637499999999,576.0900000000001,15.17625000000001,2382.13625,1653.14,2160.78125
21.3,1153.95375,87.42499999999995,3.7325000000000728,1616.89,862.0887499999999,574.9650000000001,15.30125000000001,2382.01125,1654.015,2160.40625
21.4,1159.70375,88.42499999999995,3.7325000000000728,1616.015,860.0887499999999,573.8400000000001,15.30125000000001,2381.63625,1654.89,2160.03125
21.5,1165.20375,89.54999999999995,3.8575000000000728,1615.015,858.0887499999999,572.5900000000001,15.42625000000001,2381.38625,1655.765,2159.65625
21.6,1170.57875,90.42499999999995,3.8575000000000728,1614.14,855.9637499999999,571.4650000000001,15.55125000000001,2381.01125,1656.515,2159.15625
21.7,1175.82875,91.54999999999995,3.8575000000000728,1613.015,853.8387499999999,570.2150000000001,15.67625000000001,2380.63625,1657.14,2158.78125
21.8,1180.82875,92.54999999999995,3.8575000000000728,1611.89,851.5887499999999,568.9650000000001,15.55125000000001,2380.26125,1657.89,2158.15625
21.9,1185.70375,93.54999999999995,3.9825000000000728,1610.89,849.3387499999999,567.5900000000001,15.67625000000001,2379.76125,1658.39,2157.53125
22.0,1190.45375,94.54999999999995,4.107500000000073,1609.64,846.9637499999999,566.2150000000001,15.55125000000001,2379.26125,1658.89,2157.03125
22.1,1195.07875,95.54999999999995,4.107500000000073,1608.39,844.5887499999999,564.8400000000001,15.67625000000001,2378.76125,1659.39,2156.28125
22.2,1199.45375,96.54999999999995,4.107500000000073,1607.14,842.0887499999999,563.4650000000001,15.80125000000001,2378.26125,1659.765,2155.65625
22.3,1203.70375,97.54999999999995,4.107500000000073,1605.765,839.4637499999999,561.9650000000001,15.67625000000001,2377.63625,1660.015,2155.03125
22.4,1207.82875,98.42499999999995,4.232500000000073,1604.39,836.8387499999999,560.5900000000001,15.80125000000001,2377.01125,1660.39,2154.28125
22.5,1211.82875,99.42499999999995,4.232500000000073,1603.015,834.2137499999999,559.0900000000001,15.92625000000001,2376.38625,1660.515,2153.53125
