time(s),F1,F2,F3,F4,F5,F6,F7,F8,F9,F10
10.0,1.006249999999909,0.2300000000000182,0.3537499999999909,1.8475000000000816,-0.2074999999999818,-0.0774999999998726,-0.0262500000000045,3.6062500000000455,-0.9712500000000546,1.3524999999999636
10.1,1.131249999999909,0.2300000000000182,0.3537499999999909,1.8475000000000816,-0.2074999999999818,-0.2024999999998726,0.0987499999999954,3.6062500000000455,-1.0962500000000546,1.3524999999999636
10.2,1.006249999999909,0.2300000000000182,0.3537499999999909,1.8475000000000816,-0.3324999999999818,-0.2024999999998726,0.0987499999999954,3.7312500000000455,-1.0962500000000546,1.3524999999999636
10.3,1.006249999999909,0.3550000000000182,0.1037499999999909,1.8475000000000816,-0.3324999999999818,-0.2024999999998726,-0.0262500000000045,3.7312500000000455,-1.0962500000000546,1.3524999999999636
10.4,1.006249999999909,0.3550000000000182,-0.021250000000009,1.8475000000000816,-0.4574999999999818,-0.3274999999998726,-0.0262500000000045,3.7312500000000455,-1.0962500000000546,1.3524999999999636
10.5,1.006249999999909,0.3550000000000182,-0.1462500000000091,1.722500000000082,-0.4574999999999818,-0.3274999999998726,-0.0262500000000045,3.7312500000000455,-1.0962500000000546,1.4774999999999636
10.6,1.006249999999909,0.4800000000000182,-0.1462500000000091,1.8475000000000816,-0.3324999999999818,-0.4524999999998726,-0.0262500000000045,3.8562500000000455,-1.0962500000000546,1.7274999999999636
10.7,1.006249999999909,0.4800000000000182,-0.2712500000000091,1.8475000000000816,-0.3324999999999818,-0.3274999999998726,-0.0262500000000045,3.8562500000000455,-1.2212500000000546,2.102499999999964
10.8,1.006249999999909,0.6050000000000182,-0.2712500000000091,1.8475000000000816,-0.2074999999999818,-0.3274999999998726,0.0987499999999954,3.9812500000000455,-1.0962500000000546,3.352499999999964
10.9,1.131249999999909,0.7300000000000182,-0.3962500000000091,1.9725000000000816,0.2925000000000182,-0.3274999999998726,0.0987499999999954,4.1062500000000455,-1.0962500000000546,6.102499999999964
11.0,1.381249999999909,0.7300000000000182,-0.3962500000000091,2.097500000000082,1.1675000000000182,0.0475000000001273,0.3487499999999954,4.2312500000000455,-1.0962500000000546,12.227499999999964
11.1,1.881249999999909,0.7300000000000182,-0.3962500000000091,2.472500000000082,2.667500000000018,0.6725000000001273,0.4737499999999954,4.6062500000000455,-0.9712500000000546,22.727499999999964
11.2,2.506249999999909,0.8550000000000182,-0.2712500000000091,3.347500000000082,5.417500000000018,2.0475000000001278,0.7237499999999955,5.2312500000000455,-0.7212500000000546,39.22749999999997
11.3,3.631249999999909,0.8550000000000182,-0.2712500000000091,5.222500000000082,10.292500000000018,4.547500000000127,0.8487499999999955,6.6062500000000455,-0.2212500000000545,62.97749999999997
11.4,5.131249999999909,0.8550000000000182,-0.1462500000000091,8.472500000000082,17.542500000000018,8.422500000000127,1.2237499999999957,9.606250000000044,0.9037499999999454,95.72749999999996
11.5,7.256249999999909,0.9800000000000182,-0.1462500000000091,13.722500000000082,27.292500000000015,13.922500000000127,1.7237499999999957,15.231250000000044,3.028749999999945,139.10249999999996
11.6,10.006249999999907,0.9800000000000182,-0.021250000000009,21.84750000000008,39.04250000000002,21.047500000000127,1.9737499999999957,24.731250000000045,6.778749999999945,191.9775
11.7,13.381249999999907,1.1050000000000182,0.2287499999999909,33.22250000000008,52.91750000000002,29.672500000000127,2.3487499999999955,39.731250000000045,12.403749999999944,253.4775
11.8,17.63124999999991,1.2300000000000182,0.2287499999999909,48.34750000000008,68.79250000000002,39.42250000000013,2.8487499999999955,61.356250000000045,20.778749999999945,323.4775
11.9,22.75624999999991,1.4800000000000182,0.3537499999999909,67.84750000000008,86.91750000000002,50.67250000000013,3.2237499999999955,91.35625000000005,32.153749999999945,403.1025
12.0,28.75624999999991,1.6050000000000182,0.4787499999999909,91.84750000000008,107.29250000000002,63.29750000000013,3.723749999999996,130.35625000000005,47.153749999999945,491.1025
12.1,35.63124999999991,1.9800000000000184,0.6037499999999909,120.22250000000008,129.41750000000002,77.42250000000013,4.098749999999996,179.48125000000005,65.90374999999995,585.7275
12.2,43.50624999999991,2.230000000000018,0.7287499999999909,153.84750000000008,154.04250000000002,93.04750000000011,4.723749999999996,240.23125000000005,88.77874999999995,686.9775
12.3,52.13124999999991,2.605000000000018,0.9787499999999908,192.09750000000008,180.5425,109.79750000000011,5.348749999999996,311.48125000000005,115.40374999999996,789.7275
12.4,61.75624999999991,3.105000000000018,0.9787499999999908,235.47250000000008,209.0425,127.92250000000011,5.973749999999996,394.6062500000001,145.65374999999997,893.6025
12.5,72.25624999999991,3.605000000000018,1.103749999999991,283.4725000000001,239.2925,147.04750000000013,6.223749999999996,487.9812500000001,178.90374999999997,995.4775
12.6,83.50624999999991,4.230000000000018,1.228749999999991,334.9725000000001,270.7925,166.79750000000013,6.973749999999996,589.10625,214.27874999999997,1093.3525
12.7,95.75624999999992,4.855000000000018,1.353749999999991,390.3475000000001,303.5425,187.29750000000013,7.5987499999999955,698.48125,252.27874999999997,1187.9775
12.8,108.88124999999992,5.480000000000018,1.478749999999991,448.3475000000001,336.7925,208.17250000000013,8.098749999999995,812.73125,291.90374999999995,1276.1025
12.9,122.50624999999992,6.105000000000018,1.603749999999991,507.3475000000001,370.5425,229.29750000000013,8.473749999999995,928.35625,332.52874999999995,1356.9775
13.0,137.1312499999999,6.855000000000018,1.728749999999991,567.7225000000001,405.0425,250.79750000000013,9.098749999999995,1045.23125,374.52875,1433.9775
13.1,152.5062499999999,7.605000000000018,1.853749999999991,627.9725000000001,440.0425,272.5475000000001,9.598749999999995,1159.48125,416.77875,1506.2275
13.2,168.6312499999999,8.355000000000018,1.978749999999991,686.7225000000001,474.7925,294.1725000000001,10.223749999999995,1268.48125,458.77875,1572.4775
13.3,185.3812499999999,9.230000000000018,2.228749999999991,744.4725000000001,509.7925,316.1725000000001,10.723749999999995,1372.73125,500.65375,1632.7275
13.4,202.8812499999999,10.230000000000018,2.353749999999991,800.0975000000001,544.4175,337.7975000000001,11.223749999999995,1469.85625,541.90375,1686.3525
13.5,220.8812499999999,11.105000000000018,2.478749999999991,852.5975000000001,578.1675,359.0475000000001,11.723749999999995,1558.10625,581.65375,1732.8525
13.6,239.6312499999999,12.105000000000018,2.603749999999991,902.8475,611.4175,379.9225000000001,12.098749999999995,1638.98125,620.52875,1774.2275
13.7,258.7562499999999,13.105000000000018,2.728749999999991,949.9725,643.6675,400.2975000000001,12.598749999999995,1711.48125,657.90375,1811.1025
13.8,278.3812499999999,14.230000000000018,2.853749999999991,993.5975,674.6675,420.0475000000001,13.348749999999995,1775.35625,693.15375,1843.6025
13.9,298.7562499999999,15.355000000000018,2.853749999999991,1034.5975,704.9175,439.4225000000001,13.723749999999995,1832.35625,727.27875,1873.2275
14.0,319.3812499999999,16.480000000000018,2.978749999999991,1072.7225,734.0425,458.1725000000001,14.223749999999995,1882.60625,759.52875,1900.4775
14.1,340.2562499999999,17.605000000000018,3.103749999999991,1107.5975,761.7925,476.0475000000001,14.723749999999995,1926.60625,789.90375,1925.3525
14.2,361.7562499999999,18.855000000000015,3.228749999999991,1140.0975,788.2925,493.4225000000001,14.973749999999995,1965.73125,819.15375,1948.6025
14.3,383.5062499999999,20.105000000000015,3.353749999999991,1170.2225,813.7925,510.1725000000001,15.473749999999995,2000.10625,846.77875,1970.2275
14.4,405.3812499999999,21.355000000000015,3.353749999999991,1197.3475,837.7925,525.9225000000001,15.973749999999995,2030.35625,872.90375,1990.2275
14.5,427.7562499999999,22.605000000000015,3.603749999999991,1222.8475,861.0425,541.0475000000001,16.598749999999995,2057.35625,897.77875,2009.1025
14.6,450.2562499999999,23.980000000000015,3.603749999999991,1246.0975,883.0425,555.5475000000001,16.973749999999995,2081.23125,921.52875,2026.8525
14.7,472.7562499999999,25.355000000000015,3.728749999999991,1267.3475,903.7925,569.1725000000001,17.598749999999995,2102.23125,943.77875,2042.9775
14.8,495.5062499999999,26.730000000000015,3.853749999999991,1287.0975,923.5425,582.1725000000001,18.098749999999995,2121.35625,964.90375,2057.9775
14.9,518.3812499999999,28.230000000000015,3.978749999999991,1305.3475,942.1675,594.5475000000001,18.473749999999995,2138.23125,984.90375,2071.7275
15.0,541.1312499999999,29.605000000000015,4.103749999999991,1321.8475,959.6675,606.1725000000001,18.848749999999995,2153.48125,1003.52875,2084.1025
15.1,564.0062499999999,31.105000000000015,4.228749999999991,1337.4725,976.2925,617.2975000000001,19.348749999999995,2167.10625,1021.40375,2095.6025
15.2,587.0062499999999,32.60500000000002,4.353749999999991,1351.8475,992.0425,627.7975000000001,19.723749999999995,2179.35625,1038.15375,2106.2275
15.3,609.6312499999999,34.23000000000002,4.478749999999991,1364.9725,1006.6675,637.5475000000001,20.098749999999995,2190.35625,1053.77875,2116.2275
15.4,632.3812499999999,35.85500000000002,4.603749999999991,1377.4725,1020.6675,647.0475000000001,20.473749999999995,2200.35625,1068.65375,2125.6025
15.5,654.8812499999999,37.35500000000002,4.603749999999991,1388.8475,1033.6675,655.9225000000001,20.723749999999995,2209.35625,1082.40375,2134.1025
15.6,677.3812499999999,38.98000000000002,4.728749999999991,1399.5975,1046.0425,664.2975000000001,21.098749999999995,2217.60625,1095.65375,2142.1025
15.7,699.7562499999999,40.73000000000002,4.978749999999991,1409.5975,1057.6675,672.2975000000001,21.473749999999995,2224.98125,1108.02875,2149.6025
15.8,721.6312499999999,42.35500000000002,4.978749999999991,1418.8475,1068.5425,679.6725000000001,21.973749999999995,2231.60625,1119.65375,2156.6025
15.9,743.6312499999999,43.98000000000002,5.103749999999991,1427.5975,1078.7925,686.7975000000001,22.348749999999995,2237.85625,1130.65375,2163.2275
16.0,765.2562499999999,45.73000000000002,5.103749999999991,1435.9725,1088.4175,693.5475000000001,22.848749999999995,2243.48125,1141.02875,2169.4775
16.1,786.5062499999999,47.60500000000002,5.228749999999991,1443.4725,1097.4175,699.7975000000001,23.098749999999995,2248.48125,1150.77875,2175.1025
16.2,807.6312499999999,49.35500000000002,5.353749999999991,1450.7225,1105.9175,705.7975000000001,23.348749999999995,2253.10625,1159.90375,2180.4775
16.3,828.5062499999999,51.10500000000002,5.603749999999991,1457.4725,1113.9175,711.5475000000001,23.598749999999995,2257.48125,1168.77875,2185.4775
16.4,848.7562499999999,52.85500000000002,5.728749999999991,1463.8475,1121.2925,716.7975000000001,24.098749999999995,2261.35625,1176.90375,2190.2275
16.5,869.0062499999999,54.85500000000002,5.728749999999991,1469.7225,1128.4175,721.7975000000001,24.223749999999995,2264.98125,1184.65375,2194.7275
16.6,888.8812499999999,56.60500000000002,5.728749999999991,1475.3475,1135.0425,726.5475000000001,24.848749999999995,2268.23125,1192.02875,2198.8525
16.7,908.13125,58.35500000000002,5.853749999999991,1480.5975,1141.1675,730.9225000000001,25.223749999999995,2271.35625,1198.90375,2202.7275
16.8,927.25625,60.35500000000002,5.978749999999991,1485.5975,1146.9175,735.1725000000001,25.473749999999995,2274.23125,1205.52875,2206.4775
16.9,946.00625,62.23000000000002,6.103749999999991,1490.2225,1152.2925,739.1725000000001,25.723749999999995,2276.73125,1211.77875,2209.9775
17.0,964.13125,64.10500000000002,6.228749999999991,1494.7225,1157.2925,742.7975000000001,26.098749999999995,2279.10625,1217.65375,2213.2275
17.1,982.00625,65.98000000000002,6.353749999999991,1498.8475,1162.0425,746.2975000000001,26.348749999999995,2281.35625,1223.27875,2216.2275
17.2,999.63125,67.98000000000002,6.478749999999991,1502.8475,1166.5425,749.5475000000001,26.598749999999995,2283.35625,1228.52875,2219.1025
17.3,1016.63125,69.98000000000002,6.478749999999991,1506.4725,1170.6675,752.6725000000001,27.098749999999995,2285.35625,1233.52875,2221.7275
17.4,1033.38125,71.85500000000002,6.603749999999991,1510.0975,1174.5425,755.6725000000001,27.348749999999995,2287.10625,1238.15375,2224.2275
17.5,1049.75625,73.98000000000002,6.728749999999991,1513.3475,1178.1675,758.2975000000001,27.723749999999995,2288.73125,1242.77875,2226.6025
17.6,1065.50625,75.98000000000002,6.728749999999991,1516.4725,1181.5425,760.9225000000001,28.098749999999995,2290.23125,1246.90375,2228.8525
17.7,1081.13125,77.85500000000002,6.853749999999991,1519.4725,1184.6675,763.2975000000001,28.473749999999995,2291.60625,1251.02875,2230.8525
17.8,1096.25625,80.10500000000002,6.978749999999991,1522.2225,1187.5425,765.4225000000001,28.723749999999995,2292.98125,1254.90375,2232.8525
17.9,1110.88125,82.10500000000002,6.978749999999991,1524.9725,1190.1675,767.5475000000001,28.973749999999995,2294.10625,1258.40375,2234.7275
18.0,1125.25625,84.23000000000002,7.103749999999991,1527.4725,1192.7925,769.5475000000001,29.223749999999995,2295.35625,1261.90375,2236.4775
18.1,1139.13125,86.23000000000002,7.228749999999991,1529.7225,1195.0425,771.4225000000001,29.723749999999995,2296.35625,1265.27875,2238.1025
18.2,1152.50625,88.35500000000002,7.228749999999991,1531.9725,1197.1675,773.0475000000001,29.973749999999995,2297.23125,1268.27875,2239.7275
18.3,1165.63125,90.35500000000002,7.353749999999991,1534.0975,1199.1675,774.6725000000001,30.098749999999995,2298.10625,1271.27875,2241.2275
18.4,1178.25625,92.48000000000002,7.478749999999991,1536.0975,1201.0425,776.1725000000001,30.473749999999995,2298.98125,1274.15375,2242.6025
18.5,1190.63125,94.60500000000002,7.603749999999991,1537.9725,1202.6675,777.5475000000001,30.723749999999995,2299.73125,1276.77875,2243.9775
18.6,1202.50625,96.73000000000002,7.603749999999991,1539.8475,1204.1675,778.7975000000001,31.223749999999995,2300.48125,1279.27875,2245.2275
18.7,1214.13125,98.85500000000002,7.728749999999991,1541.4725,1205.6675,780.0475000000001,31.223749999999995,2301.10625,1281.77875,2246.3525
18.8,1225.25625,101.10500000000002,7.853749999999991,1543.0975,1206.9175,781.0475000000001,31.598749999999995,2301.73125,1284.02875,2247.4775
18.9,1236.13125,103.23000000000002,7.978749999999991,1544.5975,1208.1675,782.0475000000001,31.848749999999995,2302.23125,1286.27875,2248.4775
19.0,1246.63125,105.35500000000002,7.978749999999991,1545.9725,1209.1675,782.9225000000001,32.223749999999995,2302.85625,1288.27875,2249.3525
19.1,1256.75625,107.35500000000002,8.103749999999991,1547.2225,1210.0425,783.7975000000001,32.473749999999995,2303.23125,1290.27875,2250.2275
19.2,1266.63125,109.73000000000002,8.103749999999991,1548.4725,1210.7925,784.5475000000001,32.723749999999995,2303.73125,1292.27875,2251.1025
19.3,1276.00625,111.98000000000002,8.228749999999991,1549.7225,1211.4175,785.1725000000001,33.098749999999995,2304.10625,1294.02875,2251.8525
19.4,1285.25625,114.10500000000002,8.353749999999991,1550.8475,1211.9175,785.7975000000001,33.098749999999995,2304.48125,1295.77875,2252.4775
19.5,1294.00625,116.23000000000002,8.353749999999991,1551.8475,1212.4175,786.2975000000001,33.473749999999995,2304.85625,1297.27875,2253.2275
19.6,1302.63125,118.35500000000002,8.478749999999991,1552.8475,1212.6675,786.7975000000001,33.598749999999995,2305.10625,1298.90375,2253.9775
19.7,1310.88125,120.60500000000002,8.603749999999991,1553.7225,1212.9175,787.1725000000001,33.848749999999995,2305.35625,1300.40375,2254.4775
19.8,1318.88125,122.85500000000002,8.603749999999991,1554.4725,1213.0425,787.4225000000001,34.348749999999995,2305.60625,1301.77875,2255.1025
19.9,1326.38125,125.10500000000002,8.728749999999991,1555.2225,1213.1675,787.6725000000001,34.348749999999995,2305.73125,1303.02875,2255.6025
20.0,1333.88125,127.23000000000002,8.728749999999991,1555.9725,1213.0425,787.9225000000001,34.598749999999995,2305.98125,1304.40375,2255.9775
20.1,1341.00625,129.48000000000002,8.853749999999991,1556.5975,1212.9175,787.9225000000001,34.848749999999995,2306.10625,1305.52875,2256.4775
20.2,1347.75625,131.73000000000002,8.978749999999991,1557.0975,1212.6675,787.9225000000001,35.098749999999995,2306.23125,1306.77875,2256.8525
20.3,1354.25625,133.85500000000002,8.978749999999991,1557.7225,1212.2925,788.0475000000001,35.473749999999995,2306.35625,1307.77875,2257.1025
20.4,1360.63125,136.10500000000002,8.978749999999991,1558.2225,1211.9175,788.0475000000001,35.598749999999995,2306.35625,1308.77875,2257.4775
20.5,1366.75625,138.35500000000002,9.103749999999993,1558.5975,1211.4175,787.7975000000001,35.848749999999995,2306.48125,1309.77875,2257.7275
20.6,1372.63125,140.60500000000002,9.103749999999993,1559.0975,1210.9175,787.6725000000001,36.22375,2306.48125,1310.65375,2258.1025
20.7,1378.25625,142.85500000000002,9.228749999999993,1559.3475,1210.1675,787.4225000000001,36.22375,2306.48125,1311.52875,2258.2275
20.8,1383.63125,144.98000000000002,9.228749999999993,1559.7225,1209.5425,787.1725000000001,36.47375,2306.48125,1312.27875,2258.4775
20.9,1388.88125,147.23000000000002,9.353749999999993,1559.9725,1208.7925,786.9225000000001,36.72375,2306.48125,1313.15375,2258.6025
21.0,1393.88125,149.48000000000002,9.353749999999993,1560.2225,1207.9175,786.5475000000001,36.97375,2306.48125,1313.77875,2258.7275
21.1,1398.50625,151.73000000000002,9.478749999999993,1560.3475,1207.0425,786.0475000000001,36.97375,2306.48125,1314.40375,2258.8525
21.2,1403.25625,153.85500000000002,9.603749999999993,1560.4725,1205.9175,785.5475000000001,37.34875,2306.35625,1315.02875,2258.9775
21.3,1407.63125,156.10500000000002,9.603749999999993,1560.4725,1204.9175,785.0475000000001,37.47375,2306.23125,1315.65375,2258.9775
21.4,1411.88125,158.23000000000002,9.728749999999993,1560.5975,1203.7925,784.5475000000001,37.72375,2306.10625,1316.15375,2258.9775
21.5,1415.88125,160.48000000000002,9.728749999999993,1560.5975,1202.6675,783.9225000000001,37.84875,2306.10625,1316.77875,2258.9775
21.6,1419.75625,162.73000000000002,9.853749999999993,1560.7225,1201.4175,783.2975000000001,38.09875,2305.98125,1317.15375,2258.9775
21.7,1423.38125,164.98000000000002,9.853749999999993,1560.5975,1200.1675,782.5475000000001,38.34875,2305.73125,1317.52875,2258.8525
21.8,1427.00625,167.10500000000002,9.853749999999993,1560.5975,1198.7925,781.7975000000001,38.47375,2305.60625,1317.90375,2258.8525
21.9,1430.38125,169.23000000000002,9.978749999999993,1560.4725,1197.2925,781.0475000000001,38.72375,2305.35625,1318.27875,2258.7275
22.0,1433.63125,171.48000000000002,9.978749999999993,1560.3475,1195.7925,780.2975000000001,38.84875,2305.10625,1318.65375,2258.6025
22.1,1436.75625,173.73000000000002,9.978749999999993,1560.0975,1194.1675,779.4225000000001,39.09875,2304.98125,1318.90375,2258.3525
22.2,1439.63125,175.85500000000002,10.103749999999993,1559.9725,1192.5425,778.5475000000001,39.34875,2304.73125,1319.15375,2258.2275
22.3,1442.50625,177.98000000000002,10.228749999999993,1559.7225,1190.9175,777.5475000000001,39.59875,2304.48125,1319.27875,2257.9775
22.4,1445.13125,180.10500000000002,10.228749999999993,1559.4725,1189.1675,776.6725000000001,39.84875,2304.23125,1319.40375,2257.7275
22.5,1447.75625,182.355,10.353749999999993,1559.2225,1187.4175,775.6725000000001,39.97375,2303.85625,1319.65375,2257.6025
22.6,1450.13125,184.48,10.353749999999993,1558.9725,1185.6675,774.6725000000001,40.22375,2303.60625,1319.77875,2257.3525
22.7,1452.50625,186.605,10.478749999999993,1558.5975,1183.7925,773.5475000000001,40.22375,2303.35625,1319.90375,2257.2275
22.8,1454.75625,188.855,10.478749999999993,1558.3475,1181.9175,772.5475000000001,40.34875,2302.98125,1319.90375,2256.9775
22.9,1456.75625,190.98,10.603749999999993,1557.8475,1180.0425,771.4225000000001,40.59875,2302.73125,1320.02875,2256.6025
23.0,1458.88125,193.105,10.603749999999993,1557.4725,1178.0425,770.2975000000001,40.59875,2302.35625,1320.02875,2256.3525
23.1,1460.75625,195.105,10.728749999999993,1556.9725,1176.0425,769.0475000000001,40.59875,2301.98125,1320.02875,2256.1025
