time(s),F1,F2,F3,F4,F5,F6,F7,F8,F9,F10
10.0,2.950000000000045,1.32000000000005,0.068749999999909,7.6087500000001,-5.305000000000064,-5.114999999999782,-0.0500000000000113,5.809999999999945,1.943749999999909,-0.8099999999999454
10.1,2.950000000000045,1.32000000000005,-0.0562500000000909,7.3587500000001,-5.430000000000064,-5.239999999999782,-0.0500000000000113,5.809999999999945,1.818749999999909,-0.9349999999999454
10.2,2.950000000000045,1.19500000000005,-0.0562500000000909,7.2337500000001,-5.680000000000064,-5.364999999999782,-0.0500000000000113,5.684999999999945,1.943749999999909,-1.0599999999999454
10.3,2.825000000000045,1.32000000000005,-0.1812500000000909,7.2337500000001,-5.805000000000064,-5.364999999999782,-0.1750000000000113,5.684999999999945,1.943749999999909,-1.1849999999999454
10.4,2.950000000000045,1.32000000000005,-0.0562500000000909,7.1087500000001,-5.805000000000064,-5.614999999999782,-0.1750000000000113,5.559999999999945,1.818749999999909,-1.1849999999999454
10.5,2.950000000000045,1.32000000000005,-0.1812500000000909,6.9837500000001,-5.930000000000064,-5.739999999999782,-0.1750000000000113,5.434999999999945,1.943749999999909,-1.1849999999999454
10.6,2.950000000000045,1.32000000000005,-0.1812500000000909,6.8587500000001,-6.055000000000064,-5.739999999999782,-0.1750000000000113,5.309999999999945,1.943749999999909,-0.8099999999999454
10.7,2.950000000000045,1.32000000000005,-0.3062500000000909,6.7337500000001,-6.180000000000064,-5.864999999999782,-0.0500000000000113,5.309999999999945,1.943749999999909,-0.0599999999999454
10.8,3.075000000000045,1.44500000000005,-0.3062500000000909,6.7337500000001,-6.055000000000064,-5.739999999999782,-0.1750000000000113,5.309999999999945,1.943749999999909,2.0650000000000546
10.9,3.325000000000045,1.44500000000005,-0.3062500000000909,6.8587500000001,-5.555000000000064,-5.614999999999782,-0.0500000000000113,5.309999999999945,2.068749999999909,6.190000000000055
11.0,3.7000000000000455,1.44500000000005,-0.4312500000000909,7.2337500000001,-4.555000000000064,-5.114999999999782,0.0749999999999886,5.434999999999945,2.318749999999909,13.190000000000056
11.1,4.2000000000000455,1.44500000000005,-0.4312500000000909,7.9837500000001,-2.805000000000064,-3.9899999999997817,0.0749999999999886,6.059999999999945,3.193749999999909,23.94000000000005
11.2,5.0750000000000455,1.44500000000005,-0.4312500000000909,9.6087500000001,-0.1800000000000636,-2.3649999999997817,0.1999999999999886,7.434999999999945,5.193749999999909,38.940000000000055
11.3,6.2000000000000455,1.57000000000005,-0.4312500000000909,12.7337500000001,3.3199999999999363,0.0100000000002182,0.4499999999999886,10.434999999999944,8.443749999999909,58.690000000000055
11.4,7.950000000000045,1.44500000000005,-0.4312500000000909,17.8587500000001,7.819999999999936,3.5100000000002183,0.4499999999999886,15.684999999999944,14.193749999999907,84.06500000000005
11.5,10.200000000000044,1.69500000000005,-0.556250000000091,25.7337500000001,13.194999999999936,8.010000000000218,0.5749999999999886,23.684999999999945,23.06874999999991,115.69000000000004
11.6,12.950000000000044,1.69500000000005,-0.556250000000091,36.8587500000001,19.569999999999936,13.760000000000218,0.6999999999999886,34.934999999999945,35.81874999999991,154.81500000000003
11.7,16.325000000000045,1.94500000000005,-0.4312500000000909,51.8587500000001,27.194999999999936,20.63500000000022,1.0749999999999886,50.309999999999945,52.94374999999991,204.56500000000003
11.8,20.450000000000045,2.19500000000005,-0.556250000000091,70.9837500000001,35.694999999999936,28.63500000000022,1.4499999999999886,70.43499999999995,74.81874999999991,264.19000000000005
11.9,25.075000000000045,2.44500000000005,-0.556250000000091,94.6087500000001,45.069999999999936,37.63500000000022,1.3249999999999886,95.68499999999996,101.06874999999992,331.94000000000005
12.0,30.450000000000045,2.69500000000005,-0.556250000000091,122.9837500000001,55.444999999999936,47.63500000000022,1.6999999999999886,127.43499999999996,131.9437499999999,409.31500000000005
12.1,36.325000000000045,2.94500000000005,-0.556250000000091,156.3587500000001,66.81999999999994,58.51000000000022,1.9499999999999889,166.18499999999997,167.0687499999999,495.31500000000005
12.2,42.950000000000045,3.44500000000005,-0.556250000000091,193.8587500000001,79.06999999999994,69.76000000000022,2.5749999999999886,211.68499999999997,205.3187499999999,587.315
12.3,50.075000000000045,3.69500000000005,-0.556250000000091,236.2337500000001,92.56999999999994,81.76000000000022,2.6999999999999886,265.43499999999995,246.9437499999999,685.19
12.4,58.075000000000045,4.19500000000005,-0.556250000000091,282.8587500000001,107.19499999999994,94.51000000000022,2.9499999999999886,326.93499999999995,290.5687499999999,785.44
12.5,66.45000000000005,4.69500000000005,-0.556250000000091,332.3587500000001,122.81999999999994,107.51000000000022,3.1999999999999886,395.31,335.4437499999999,883.815
12.6,75.57500000000005,5.19500000000005,-0.556250000000091,385.4837500000001,139.44499999999994,121.01000000000022,3.4499999999999886,471.435,381.6937499999999,980.94
12.7,85.20000000000005,5.82000000000005,-0.556250000000091,440.4837500000001,156.56999999999994,134.63500000000022,3.8249999999999886,553.31,427.6937499999999,1072.94
12.8,95.45000000000005,6.44500000000005,-0.556250000000091,498.1087500000001,174.69499999999994,148.88500000000022,4.074999999999989,641.935,474.3187499999999,1160.815
12.9,106.32500000000005,7.07000000000005,-0.556250000000091,556.8587500000001,193.44499999999996,163.26000000000022,4.449999999999989,735.435,520.6937499999999,1242.565
13.0,117.57500000000005,7.69500000000005,-0.556250000000091,615.6087500000001,212.56999999999996,177.63500000000022,4.699999999999989,831.685,566.4437499999999,1317.315
13.1,129.57500000000005,8.32000000000005,-0.556250000000091,674.8587500000001,232.31999999999996,192.38500000000025,4.949999999999989,931.56,612.0687499999999,1386.565
13.2,141.95000000000005,8.94500000000005,-0.556250000000091,733.3587500000001,252.56999999999996,207.26000000000025,5.449999999999989,1032.685,657.1937499999999,1450.065
13.3,154.57500000000005,9.69500000000005,-0.556250000000091,789.9837500000001,272.81999999999994,222.01000000000025,5.699999999999989,1132.56,701.0687499999999,1507.815
13.4,167.95000000000005,10.57000000000005,-0.4312500000000909,845.4837500000001,293.69499999999994,236.76000000000025,5.949999999999989,1231.935,744.5687499999999,1561.19
13.5,181.70000000000005,11.19500000000005,-0.4312500000000909,898.9837500000001,314.81999999999994,251.38500000000025,6.199999999999989,1328.31,786.8187499999999,1610.065
13.6,195.70000000000005,12.07000000000005,-0.4312500000000909,949.48375,335.81999999999994,265.8850000000002,6.574999999999989,1419.935,827.3187499999999,1654.315
13.7,210.20000000000005,12.82000000000005,-0.4312500000000909,997.85875,357.06999999999994,280.2600000000002,6.824999999999989,1507.685,866.8187499999999,1694.815
13.8,225.07500000000005,13.69500000000005,-0.4312500000000909,1043.48375,378.32,294.2600000000002,7.074999999999989,1590.31,904.81875,1731.815
13.9,240.07500000000005,14.44500000000005,-0.4312500000000909,1085.85875,399.32,307.8850000000002,7.199999999999989,1666.435,940.81875,1765.44
14.0,255.57500000000005,15.32000000000005,-0.4312500000000909,1125.85875,420.32,321.2600000000002,7.699999999999989,1737.685,975.81875,1796.69
14.1,271.45000000000005,16.19500000000005,-0.4312500000000909,1163.23375,441.195,334.2600000000002,7.824999999999989,1803.185,1009.19375,1825.44
14.2,287.32500000000005,17.07000000000005,-0.4312500000000909,1197.73375,461.445,346.8850000000002,7.949999999999989,1862.56,1040.94375,1851.44
14.3,303.57500000000005,17.94500000000005,-0.4312500000000909,1229.98375,481.695,359.1350000000002,8.324999999999989,1917.185,1071.56875,1875.815
14.4,320.07500000000005,19.07000000000005,-0.3062500000000909,1259.98375,501.445,371.0100000000002,8.449999999999989,1966.81,1100.81875,1898.44
14.5,336.57500000000005,19.94500000000005,-0.3062500000000909,1287.48375,520.6949999999999,382.3850000000002,8.949999999999989,2011.56,1128.44375,1919.315
14.6,353.45000000000005,20.82000000000005,-0.3062500000000909,1313.23375,539.5699999999999,393.5100000000002,8.824999999999989,2052.56,1154.94375,1938.815
14.7,370.4500000000001,21.94500000000005,-0.3062500000000909,1336.98375,557.9449999999999,404.2600000000002,9.199999999999989,2089.685,1180.31875,1956.69
14.8,387.3250000000001,22.82000000000005,-0.3062500000000909,1358.85875,575.6949999999999,414.3850000000002,9.449999999999989,2122.81,1204.19375,1973.065
14.9,404.5750000000001,23.82000000000005,-0.1812500000000909,1379.23375,593.0699999999999,424.1350000000002,9.574999999999989,2153.31,1227.06875,1988.565
15.0,421.8250000000001,24.82000000000005,-0.1812500000000909,1398.23375,609.8199999999999,433.5100000000002,9.949999999999989,2180.935,1248.81875,2002.815
15.1,438.9500000000001,25.94500000000005,-0.1812500000000909,1415.60875,625.8199999999999,442.2600000000002,9.949999999999989,2205.81,1269.31875,2016.065
15.2,456.2000000000001,26.94500000000005,-0.1812500000000909,1431.85875,641.4449999999999,450.8850000000002,10.074999999999989,2228.685,1289.06875,2028.44
15.3,473.5750000000001,27.94500000000005,-0.1812500000000909,1446.85875,656.4449999999999,458.8850000000002,10.574999999999989,2249.56,1307.69375,2040.19
15.4,490.7000000000001,29.07000000000005,-0.0562500000000909,1460.73375,670.6949999999999,466.5100000000002,10.699999999999989,2268.31,1325.31875,2051.065
15.5,508.0750000000001,30.19500000000005,-0.0562500000000909,1473.73375,684.3199999999999,473.7600000000002,10.824999999999989,2285.81,1342.19375,2061.19
15.6,525.325,31.32000000000005,-0.0562500000000909,1485.73375,697.4449999999999,480.7600000000002,10.824999999999989,2301.685,1358.19375,2070.565
15.7,542.325,32.19500000000005,-0.0562500000000909,1496.85875,709.9449999999999,487.1350000000002,11.074999999999989,2316.185,1373.19375,2079.315
15.8,559.325,33.44500000000005,-0.0562500000000909,1507.35875,721.8199999999999,493.2600000000002,11.074999999999989,2329.56,1387.56875,2087.565
15.9,576.2,34.57000000000005,0.068749999999909,1516.98375,733.0699999999999,499.0100000000002,11.324999999999989,2341.81,1401.06875,2095.19
16.0,593.2,35.57000000000005,0.068749999999909,1525.98375,743.8199999999999,504.5100000000002,11.699999999999989,2353.06,1414.06875,2102.44
16.1,609.95,36.82000000000005,0.193749999999909,1534.48375,753.9449999999999,509.6350000000002,11.699999999999989,2363.56,1426.44375,2109.065
16.2,626.325,37.94500000000005,0.193749999999909,1542.23375,763.5699999999999,514.3850000000002,11.949999999999989,2373.06,1437.94375,2115.44
16.3,642.825,39.07000000000005,0.193749999999909,1549.48375,772.5699999999999,518.8850000000002,12.074999999999989,2381.81,1449.06875,2121.315
16.4,659.2,40.19500000000005,0.193749999999909,1556.23375,781.1949999999999,523.1350000000002,12.074999999999989,2389.935,1459.56875,2126.815
16.5,675.2,41.32000000000005,0.318749999999909,1562.60875,789.1949999999999,527.0100000000002,12.324999999999989,2397.31,1469.44375,2131.94
16.6,691.075,42.57000000000005,0.318749999999909,1568.48375,796.6949999999999,530.7600000000002,12.449999999999989,2404.185,1478.94375,2136.815
16.7,706.95,43.69500000000005,0.318749999999909,1573.85875,803.8199999999999,534.0100000000002,12.574999999999989,2410.56,1487.94375,2141.44
16.8,722.325,44.94500000000005,0.443749999999909,1578.98375,810.4449999999999,537.1350000000002,12.824999999999989,2416.435,1496.31875,2145.44
16.9,737.7,46.07000000000005,0.443749999999909,1583.60875,816.5699999999999,540.0100000000002,12.824999999999989,2421.935,1504.44375,2149.44
17.0,752.825,47.19500000000005,0.443749999999909,1587.98375,822.3199999999999,542.7600000000002,13.074999999999989,2426.81,1512.19375,2153.19
17.1,767.575,48.32000000000005,0.568749999999909,1591.98375,827.6949999999999,545.1350000000002,13.324999999999989,2431.31,1519.31875,2156.44
17.2,782.325,49.44500000000005,0.568749999999909,1595.73375,832.6949999999999,547.2600000000002,13.449999999999989,2435.56,1526.31875,2159.69
17.3,796.7,50.69500000000005,0.568749999999909,1599.23375,837.1949999999999,549.3850000000002,13.699999999999989,2439.435,1532.81875,2162.565
17.4,810.825,51.82000000000005,0.693749999999909,1602.35875,841.3199999999999,551.1350000000002,13.574999999999989,2443.06,1539.06875,2165.315
17.5,824.7,53.07000000000005,0.693749999999909,1605.23375,845.1949999999999,552.7600000000002,13.824999999999989,2446.31,1544.94375,2167.815
17.6,838.45,54.19500000000005,0.693749999999909,1607.98375,848.6949999999999,554.1350000000002,13.824999999999989,2449.31,1550.56875,2170.19
17.7,851.7,55.44500000000005,0.693749999999909,1610.35875,851.6949999999999,555.3850000000002,13.949999999999989,2452.06,1555.81875,2172.315
17.8,865.075,56.57000000000005,0.693749999999909,1612.60875,854.4449999999999,556.5100000000002,13.949999999999989,2454.56,1560.81875,2174.315
17.9,877.95,57.69500000000005,0.818749999999909,1614.60875,856.9449999999999,557.3850000000002,14.199999999999989,2456.935,1565.56875,2176.065
18.0,890.575,58.94500000000005,0.818749999999909,1616.48375,859.1949999999999,558.1350000000002,14.074999999999989,2459.06,1570.06875,2177.69
18.1,902.95,60.07000000000005,0.943749999999909,1617.98375,861.0699999999999,558.7600000000002,14.324999999999989,2461.06,1574.44375,2179.19
18.2,915.075,61.32000000000005,0.943749999999909,1619.48375,862.6949999999999,559.1350000000002,14.449999999999989,2462.935,1578.44375,2180.69
18.3,926.95,62.44500000000005,0.943749999999909,1620.73375,864.0699999999999,559.5100000000002,14.574999999999989,2464.435,1582.31875,2181.94
18.4,938.575,63.69500000000005,1.068749999999909,1621.85875,865.1949999999999,559.6350000000002,14.449999999999989,2465.935,1585.94375,2183.065
18.5,949.95,64.82000000000005,1.068749999999909,1622.85875,866.1949999999999,559.7600000000002,14.574999999999989,2467.185,1589.44375,2184.065
18.6,960.95,66.07000000000005,1.068749999999909,1623.73375,866.6949999999999,559.6350000000002,14.824999999999989,2468.435,1592.69375,2184.94
18.7,971.825,67.07000000000005,1.193749999999909,1624.35875,867.0699999999999,559.5100000000002,14.824999999999989,2469.56,1595.69375,2185.69
18.8,982.45,68.32000000000005,1.193749999999909,1624.98375,867.3199999999999,559.2600000000002,14.824999999999989,2470.435,1598.56875,2186.315
18.9,992.7,69.44500000000005,1.193749999999909,1625.35875,867.1949999999999,558.7600000000002,14.949999999999989,2471.31,1601.31875,2187.065
19.0,1002.7,70.57000000000005,1.193749999999909,1625.60875,866.9449999999999,558.3850000000002,15.074999999999989,2472.06,1603.81875,2187.44
19.1,1012.45,71.69500000000005,1.318749999999909,1625.85875,866.4449999999999,557.7600000000002,15.074999999999989,2472.685,1606.31875,2187.815
19.2,1022.075,72.94500000000005,1.318749999999909,1625.73375,865.8199999999999,557.0100000000002,15.074999999999989,2473.185,1608.56875,2188.19
19.3,1031.45,74.07000000000005,1.318749999999909,1625.73375,864.9449999999999,556.2600000000002,15.199999999999989,2473.685,1610.81875,2188.44
19.4,1040.45,75.32000000000005,1.318749999999909,1625.48375,863.8199999999999,555.3850000000002,15.324999999999989,2474.06,1612.81875,2188.44
19.5,1049.325,76.32000000000005,1.443749999999909,1625.23375,862.5699999999999,554.3850000000002,15.324999999999989,2474.31,1614.69375,2188.44
19.6,1057.825,77.44500000000005,1.443749999999909,1624.73375,861.0699999999999,553.3850000000002,15.574999999999989,2474.435,1616.44375,2188.44
19.7,1066.075,78.57000000000005,1.443749999999909,1624.23375,859.4449999999999,552.1350000000002,15.574999999999989,2474.56,1618.06875,2188.315
19.8,1074.325,79.82000000000005,1.443749999999909,1623.60875,857.8199999999999,551.0100000000002,15.699999999999989,2474.685,1619.69375,2188.065
19.9,1082.2,80.82000000000005,1.568749999999909,1622.98375,855.9449999999999,549.7600000000002,15.699999999999989,2474.685,1621.19375,2187.815
20.0,1089.7,81.94500000000005,1.568749999999909,1622.10875,853.9449999999999,548.3850000000002,15.824999999999989,2474.56,1622.44375,2187.315
20.1,1097.2,83.07000000000005,1.693749999999909,1621.23375,851.9449999999999,547.1350000000002,15.824999999999989,2474.435,1623.69375,2186.815
20.2,1104.45,84.07000000000005,1.693749999999909,1620.35875,849.6949999999999,545.6350000000002,15.824999999999989,2474.185,1624.81875,2186.19
20.3,1111.325,85.19500000000005,1.693749999999909,1619.23375,847.4449999999999,544.1350000000002,15.949999999999989,2473.81,1625.94375,2185.69
20.4,1118.2,86.32000000000005,1.818749999999909,1618.10875,844.9449999999999,542.5100000000002,15.949999999999989,2473.435,1626.81875,2184.94
20.5,1124.7,87.32000000000005,1.818749999999909,1616.85875,842.4449999999999,541.0100000000002,16.07499999999999,2473.06,1627.56875,2184.315
20.6,1130.95,88.44500000000005,1.818749999999909,1615.60875,839.6949999999999,539.2600000000002,16.19999999999999,2472.56,1628.31875,2183.565
20.7,1137.2,89.44500000000005,1.818749999999909,1614.23375,836.9449999999999,537.5100000000002,15.949999999999989,2472.06,1629.06875,2182.69
20.8,1143.2,90.57000000000004,1.818749999999909,1612.85875,834.0699999999999,535.7600000000002,16.07499999999999,2471.435,1629.69375,2181.815
20.9,1148.825,91.57000000000004,1.818749999999909,1611.35875,831.1949999999999,533.8850000000002,16.07499999999999,2470.81,1630.19375,2180.94
21.0,1154.45,92.57000000000004,1.943749999999909,1609.85875,828.1949999999999,532.1350000000002,16.07499999999999,2470.185,1630.69375,2179.815
21.1,1159.825,93.69500000000004,1.943749999999909,1608.10875,825.0699999999999,530.1350000000002,15.949999999999989,2469.56,1631.06875,2178.815
21.2,1164.95,94.69500000000004,1.943749999999909,1606.48375,821.9449999999999,528.1350000000002,16.19999999999999,2468.81,1631.31875,2177.815
21.3,1169.95,95.57000000000004,2.068749999999909,1604.73375,818.6949999999999,526.1350000000002,16.19999999999999,2467.935,1631.69375,2176.565
21.4,1174.825,96.57000000000004,2.068749999999909,1602.85875,815.3199999999999,524.1350000000002,16.07499999999999,2467.185,1631.81875,2175.315
21.5,1179.45,97.57000000000004,2.068749999999909,1600.98375,811.9449999999999,522.0100000000002,16.19999999999999,2466.31,1631.94375,2174.065
21.6,1183.95,98.57000000000004,2.193749999999909,1599.10875,808.4449999999999,519.7600000000002,16.19999999999999,2465.435,1631.94375,2172.815
21.7,1188.2,99.69500000000004,2.193749999999909,1597.10875,804.9449999999999,517.6350000000002,16.19999999999999,2464.56,1631.94375,2171.565
21.8,1192.325,100.57000000000004,2.193749999999909,1595.10875,801.3199999999999,515.5100000000002,16.19999999999999,2463.56,1631.94375,2170.19
21.9,1196.325,101.57000000000004,2.193749999999909,1592.98375,797.6949999999999,513.2600000000002,16.32499999999999,2462.56,1631.94375,2168.69
22.0,1200.2,102.44500000000004,2.318749999999909,1590.85875,793.8199999999999,510.8850000000002,16.19999999999999,2461.435,1631.69375,2167.315
22.1,1203.825,103.44500000000004,2.318749999999909,1588.73375,790.0699999999999,508.7600000000002,16.32499999999999,2460.435,1631.44375,2165.69
22.2,1207.45,104.32000000000004,2.318749999999909,1586.48375,786.1949999999999,506.3850000000002,16.32499999999999,2459.31,1631.19375,2164.19
22.3,1210.7,105.32000000000004,2.318749999999909,1584.23375,782.3199999999999,504.1350000000002,16.44999999999999,2458.185,1630.94375,2162.565
22.4,1214.075,106.19500000000004,2.443749999999909,1581.85875,778.3199999999999,501.7600000000002,16.32499999999999,2456.935,1630.56875,2160.815
22.5,1217.2,107.07000000000004,2.318749999999909,1579.48375,774.3199999999999,499.5100000000002,16.32499999999999,2455.685,1630.19375,2159.065
22.6,1220.2,108.07000000000004,2.443749999999909,1577.10875,770.3199999999999,497.1350000000002,16.19999999999999,2454.56,1629.69375,2157.19
22.7,1222.95,108.82000000000004,2.443749999999909,1574.60875,766.1949999999999,494.7600000000002,16.57499999999999,2453.185,1629.19375,2155.44
