time(s),F1,F2,F3,F4,F5,F6,F7,F8,F9,F10
10.0,1.4812500000000457,0.3099999999999454,-0.021250000000009,7.352499999999964,-2.588749999999891,-2.7712499999997817,-0.2350000000000136,5.846250000000055,0.2824999999997999,1.3724999999999454
10.1,1.4812500000000457,0.4349999999999454,-0.021250000000009,7.227499999999964,-2.713749999999891,-2.8962499999997817,-0.1100000000000136,5.721250000000055,0.2824999999997999,1.1224999999999454
10.2,1.4812500000000457,0.3099999999999454,-0.1462500000000091,7.102499999999964,-2.838749999999891,-2.8962499999997817,0.0149999999999863,5.596250000000055,0.1574999999997999,1.1224999999999454
10.3,1.4812500000000457,0.4349999999999454,-0.2712500000000091,7.102499999999964,-2.838749999999891,-3.0212499999997817,-0.2350000000000136,5.596250000000055,0.1574999999997999,0.9974999999999454
10.4,1.4812500000000457,0.4349999999999454,-0.2712500000000091,6.977499999999964,-2.963749999999891,-3.1462499999997817,-0.2350000000000136,5.471250000000055,0.1574999999997999,1.1224999999999454
10.5,1.4812500000000457,0.3099999999999454,-0.2712500000000091,6.852499999999964,-3.088749999999891,-3.1462499999997817,-0.2350000000000136,5.346250000000055,0.1574999999997999,1.1224999999999454
10.6,1.4812500000000457,0.3099999999999454,-0.3962500000000091,6.852499999999964,-3.088749999999891,-3.2712499999997817,-0.2350000000000136,5.346250000000055,0.1574999999997999,1.6224999999999454
10.7,1.6062500000000457,0.3099999999999454,-0.3962500000000091,6.727499999999964,-3.088749999999891,-3.2712499999997817,-0.2350000000000136,5.221250000000055,0.2824999999997999,2.747499999999945
10.8,1.7312500000000457,0.3099999999999454,-0.3962500000000091,6.727499999999964,-2.963749999999891,-3.2712499999997817,-0.1100000000000136,5.221250000000055,0.2824999999997999,5.372499999999945
10.9,1.9812500000000453,0.3099999999999454,-0.3962500000000091,6.852499999999964,-2.463749999999891,-3.0212499999997817,0.0149999999999863,5.346250000000055,0.4074999999997999,10.872499999999944
11.0,2.481250000000045,0.3099999999999454,-0.3962500000000091,7.477499999999964,-1.3387499999998909,-2.5212499999997817,0.1399999999999863,5.721250000000055,1.0324999999998,20.372499999999945
11.1,3.481250000000045,0.3099999999999454,-0.5212500000000091,8.727499999999964,0.6612500000001091,-1.2712499999997815,0.2649999999999863,6.596250000000055,2.2824999999998,35.622499999999945
11.2,4.9812500000000455,0.3099999999999454,-0.5212500000000091,11.477499999999964,4.411250000000109,0.9787500000002184,0.3899999999999863,8.846250000000055,5.0324999999998,60.497499999999945
11.3,7.231250000000045,0.4349999999999454,-0.5212500000000091,16.227499999999964,10.41125000000011,4.478750000000218,0.5149999999999864,13.346250000000056,10.2824999999998,95.87249999999996
11.4,10.231250000000044,0.5599999999999454,-0.5212500000000091,23.602499999999964,18.78625000000011,9.978750000000218,0.8899999999999864,20.97125000000005,19.0324999999998,142.12249999999997
11.5,14.231250000000044,0.6849999999999454,-0.5212500000000091,34.977499999999964,29.16125000000011,17.35375000000022,1.1399999999999864,33.721250000000055,32.6574999999998,203.74749999999997
11.6,19.356250000000045,0.8099999999999454,-0.5212500000000091,51.22749999999997,41.53625000000011,26.85375000000022,1.3899999999999864,52.846250000000055,51.9074999999998,282.62249999999995
11.7,25.481250000000045,1.0599999999999454,-0.5212500000000091,72.72749999999996,55.16125000000011,37.72875000000022,1.6399999999999864,79.97125000000005,77.2824999999998,377.7475
11.8,32.856250000000045,1.5599999999999454,-0.6462500000000091,100.72749999999996,70.66125000000011,50.47875000000022,2.1399999999999864,116.84625000000004,110.1574999999998,488.6225
11.9,41.356250000000045,1.8099999999999452,-0.6462500000000091,135.47749999999996,87.78625000000011,64.72875000000022,2.3899999999999864,164.47125000000003,150.1574999999998,611.6225
12.0,50.981250000000045,2.434999999999945,-0.5212500000000091,176.97749999999996,106.41125000000012,80.10375000000022,3.0149999999999864,223.09625000000003,196.4074999999998,740.8725
12.1,61.981250000000045,2.934999999999945,-0.6462500000000091,225.8525,127.28625000000012,96.97875000000022,3.3899999999999864,294.72125000000005,248.9074999999998,874.3725
12.2,74.10625000000005,3.434999999999945,-0.5212500000000091,281.4775,150.2862500000001,115.10375000000022,3.8899999999999855,378.72125000000005,305.4074999999998,1006.6225
12.3,87.23125000000005,4.184999999999945,-0.5212500000000091,342.9775,174.7862500000001,134.10375000000022,4.264999999999986,473.72125000000005,364.2824999999998,1132.4975
12.4,101.60625000000005,4.934999999999945,-0.5212500000000091,410.8525,201.5362500000001,154.60375000000022,4.764999999999986,581.09625,425.2824999999998,1251.9975
12.5,116.98125000000005,5.684999999999945,-0.5212500000000091,482.6025,229.5362500000001,175.72875000000022,5.139999999999986,697.84625,486.7824999999998,1359.8725
12.6,133.35625000000005,6.559999999999945,-0.5212500000000091,558.7275,259.5362500000001,197.85375000000025,5.639999999999986,825.22125,549.4074999999998,1456.9975
12.7,150.85625000000005,7.434999999999945,-0.5212500000000091,637.1025,290.6612500000001,220.60375000000025,6.014999999999986,958.97125,612.0324999999998,1542.2475
12.8,169.10625000000005,8.434999999999945,-0.5212500000000091,715.6025,322.6612500000001,243.47875000000025,6.514999999999986,1094.72125,673.7824999999998,1617.4975
12.9,188.48125000000005,9.559999999999944,-0.5212500000000091,794.3525,355.7862500000001,266.7287500000002,6.889999999999986,1232.09625,735.4074999999998,1686.2475
13.0,208.60625000000005,10.559999999999944,-0.5212500000000091,871.2275,389.2862500000001,290.1037500000002,7.389999999999986,1366.97125,795.7824999999998,1748.2475
13.1,229.35625000000005,11.809999999999944,-0.3962500000000091,944.6025,422.9112500000001,313.1037500000002,7.889999999999986,1494.72125,853.7824999999998,1802.6225
13.2,250.85625000000005,12.934999999999944,-0.5212500000000091,1014.8525,457.0362500000001,336.1037500000002,8.264999999999986,1615.34625,910.1574999999998,1850.9975
13.3,273.23125000000005,14.184999999999944,-0.3962500000000091,1080.7275,491.0362500000001,358.8537500000002,8.639999999999986,1725.59625,964.1574999999998,1893.8725
13.4,295.98125000000005,15.434999999999944,-0.3962500000000091,1141.3525,524.4112500000001,380.8537500000002,9.139999999999986,1823.84625,1014.6574999999998,1931.6225
13.5,319.60625000000005,16.809999999999945,-0.3962500000000091,1197.8525,557.6612500000001,402.6037500000002,9.639999999999986,1912.22125,1063.1574999999998,1966.1225
13.6,343.48125000000005,18.059999999999945,-0.3962500000000091,1249.7275,590.4112500000001,423.7287500000002,9.889999999999986,1989.97125,1108.9074999999998,1996.9975
13.7,367.7312500000001,19.559999999999945,-0.3962500000000091,1296.6025,622.1612500000001,444.1037500000002,10.264999999999986,2057.34625,1151.4074999999998,2024.8725
13.8,392.4812500000001,20.934999999999945,-0.3962500000000091,1339.7275,653.4112500000001,463.7287500000002,10.764999999999986,2116.72125,1191.7824999999998,2050.7475
13.9,417.6062500000001,22.434999999999945,-0.2712500000000091,1378.8525,683.9112500000001,482.6037500000002,11.139999999999986,2168.59625,1229.6574999999998,2074.4975
14.0,442.8562500000001,23.809999999999945,-0.1462500000000091,1413.9775,713.4112500000001,500.6037500000002,11.264999999999986,2213.47125,1264.6574999999998,2095.8725
14.1,468.4812500000001,25.434999999999945,-0.1462500000000091,1446.3525,742.2862500000001,517.9787500000002,11.889999999999986,2253.22125,1297.9074999999998,2115.4975
14.2,494.3562500000001,26.934999999999945,-0.1462500000000091,1475.7275,770.1612500000001,534.4787500000002,12.139999999999986,2288.09625,1329.0324999999998,2133.1225
14.3,520.10625,28.559999999999945,-0.1462500000000091,1502.2275,796.6612500000001,550.1037500000002,12.389999999999986,2318.47125,1357.7824999999998,2149.1225
14.4,546.23125,30.309999999999945,-0.021250000000009,1526.6025,822.4112500000001,565.2287500000002,12.764999999999986,2345.59625,1385.0324999999998,2164.1225
14.5,572.35625,31.809999999999945,-0.021250000000009,1548.8525,847.0362500000001,579.4787500000002,13.139999999999986,2369.47125,1410.4074999999998,2177.7475
14.6,598.35625,33.559999999999945,0.1037499999999909,1568.9775,870.2862500000001,592.9787500000002,13.514999999999986,2390.59625,1433.9074999999998,2189.7475
14.7,624.48125,35.309999999999945,0.1037499999999909,1587.6025,892.7862500000001,605.9787500000002,14.014999999999986,2409.59625,1456.1574999999998,2200.9975
14.8,650.48125,36.934999999999945,0.2287499999999909,1604.8525,914.28625,618.2287500000002,14.139999999999986,2426.59625,1476.7824999999998,2211.4975
14.9,676.10625,38.684999999999945,0.2287499999999909,1620.3525,934.28625,629.7287500000002,14.514999999999986,2441.59625,1495.7824999999998,2221.1225
15.0,701.85625,40.559999999999945,0.2287499999999909,1634.8525,953.78625,640.7287500000002,14.764999999999986,2455.22125,1513.9074999999998,2230.2475
15.1,727.35625,42.434999999999945,0.3537499999999909,1648.1025,972.03625,650.9787500000002,15.014999999999986,2467.34625,1530.6574999999998,2238.7475
15.2,752.35625,44.309999999999945,0.3537499999999909,1660.3525,989.16125,660.6037500000002,15.389999999999986,2478.22125,1546.2824999999998,2246.6225
15.3,777.35625,46.184999999999945,0.4787499999999909,1671.7275,1005.41125,669.8537500000002,15.764999999999986,2488.22125,1560.9074999999998,2253.7475
15.4,801.98125,47.934999999999945,0.4787499999999909,1682.2275,1020.78625,678.3537500000002,16.014999999999986,2497.09625,1574.5324999999998,2260.2475
15.5,826.10625,49.934999999999945,0.4787499999999909,1691.8525,1035.16125,686.3537500000002,16.514999999999986,2505.09625,1587.2824999999998,2266.2475
15.6,849.98125,51.809999999999945,0.6037499999999909,1700.8525,1048.78625,693.9787500000002,16.514999999999986,2512.47125,1599.2824999999998,2271.7475
15.7,873.35625,53.809999999999945,0.6037499999999909,1709.2275,1061.53625,700.9787500000002,16.764999999999986,2519.09625,1610.4074999999998,2276.9975
15.8,896.48125,55.809999999999945,0.7287499999999909,1716.9775,1073.53625,707.4787500000002,17.264999999999986,2525.09625,1621.0324999999998,2281.9975
15.9,919.23125,57.809999999999945,0.7287499999999909,1724.3525,1084.91125,713.7287500000002,17.264999999999986,2530.72125,1630.9074999999998,2286.6225
16.0,941.23125,59.809999999999945,0.8537499999999909,1730.9775,1095.28625,719.4787500000002,17.639999999999986,2535.59625,1640.1574999999998,2290.9975
16.1,962.85625,61.809999999999945,0.9787499999999908,1737.2275,1105.28625,724.8537500000002,17.889999999999986,2540.22125,1648.6574999999998,2294.9975
16.2,984.23125,63.934999999999945,0.9787499999999908,1743.1025,1114.41125,729.8537500000002,18.264999999999983,2544.34625,1656.7824999999998,2298.6225
16.3,1004.73125,66.05999999999995,1.103749999999991,1748.4775,1122.91125,734.4787500000002,18.514999999999983,2548.22125,1664.4074999999998,2301.8725
16.4,1025.10625,68.05999999999995,1.103749999999991,1753.6025,1130.91125,738.7287500000002,18.764999999999983,2551.72125,1671.5324999999998,2305.1225
16.5,1044.85625,70.18499999999995,1.228749999999991,1758.3525,1138.28625,742.7287500000002,19.014999999999983,2554.84625,1678.1574999999998,2307.8725
16.6,1063.85625,72.30999999999995,1.228749999999991,1762.6025,1145.16125,746.3537500000002,19.264999999999983,2557.84625,1684.4074999999998,2310.6225
16.7,1082.60625,74.55999999999995,1.353749999999991,1766.7275,1151.53625,749.7287500000002,19.514999999999983,2560.47125,1690.4074999999998,2313.1225
16.8,1100.73125,76.55999999999995,1.478749999999991,1770.4775,1157.41125,752.8537500000002,19.889999999999983,2562.97125,1695.9074999999998,2315.4975
16.9,1118.23125,78.80999999999995,1.478749999999991,1773.9775,1162.91125,755.6037500000002,20.014999999999983,2565.22125,1701.0324999999998,2317.6225
17.0,1135.48125,80.93499999999995,1.603749999999991,1777.2275,1168.03625,758.2287500000002,20.139999999999983,2567.09625,1705.9074999999998,2319.7475
17.1,1152.10625,83.18499999999995,1.603749999999991,1780.2275,1172.53625,760.7287500000002,20.514999999999983,2569.09625,1710.5324999999998,2321.6225
17.2,1168.10625,85.30999999999995,1.728749999999991,1783.1025,1176.91125,762.8537500000002,20.514999999999983,2570.72125,1714.7824999999998,2323.2475
17.3,1183.85625,87.43499999999995,1.728749999999991,1785.6025,1180.78625,764.8537500000002,20.889999999999983,2572.22125,1718.7824999999998,2324.8725
17.4,1198.98125,89.68499999999995,1.853749999999991,1788.1025,1184.41125,766.6037500000002,20.889999999999983,2573.72125,1722.7824999999998,2326.3725
17.5,1213.48125,91.93499999999996,1.853749999999991,1790.3525,1187.66125,768.3537500000002,21.389999999999983,2575.09625,1726.2824999999998,2327.7475
17.6,1227.60625,94.05999999999996,1.978749999999991,1792.3525,1190.66125,769.7287500000002,21.389999999999983,2576.34625,1729.6574999999998,2328.9975
17.7,1241.35625,96.30999999999996,2.103749999999991,1794.3525,1193.41125,771.1037500000002,21.764999999999983,2577.34625,1732.9074999999998,2330.2475
17.8,1254.35625,98.43499999999996,2.103749999999991,1796.1025,1195.78625,772.3537500000002,21.889999999999983,2578.34625,1735.9074999999998,2331.2475
17.9,1267.10625,100.80999999999996,2.228749999999991,1797.7275,1197.91125,773.2287500000002,22.139999999999983,2579.34625,1738.7824999999998,2332.2475
18.0,1279.60625,103.05999999999996,2.228749999999991,1799.2275,1199.78625,774.2287500000002,22.389999999999983,2580.09625,1741.4074999999998,2333.2475
18.1,1291.23125,105.30999999999996,2.353749999999991,1800.6025,1201.41125,774.9787500000002,22.764999999999983,2580.84625,1743.9074999999998,2333.9975
18.2,1302.60625,107.55999999999996,2.478749999999991,1801.8525,1202.91125,775.6037500000002,22.764999999999983,2581.59625,1746.2824999999998,2334.7475
18.3,1313.73125,109.80999999999996,2.478749999999991,1802.9775,1204.16125,776.1037500000002,23.139999999999983,2582.22125,1748.5324999999998,2335.4975
18.4,1324.23125,112.05999999999996,2.603749999999991,1803.9775,1205.16125,776.4787500000002,23.139999999999983,2582.72125,1750.6574999999998,2336.1225
18.5,1334.35625,114.30999999999996,2.603749999999991,1804.9775,1206.16125,776.8537500000002,23.139999999999983,2583.34625,1752.6574999999998,2336.7475
18.6,1344.10625,116.68499999999996,2.728749999999991,1805.7275,1206.78625,776.9787500000002,23.514999999999983,2583.72125,1754.4074999999998,2337.2475
18.7,1353.48125,118.80999999999996,2.728749999999991,1806.4775,1207.28625,777.1037500000002,23.764999999999983,2584.09625,1756.1574999999998,2337.6225
18.8,1362.48125,121.05999999999996,2.728749999999991,1806.9775,1207.66125,777.1037500000002,24.014999999999983,2584.47125,1757.7824999999998,2337.9975
18.9,1370.98125,123.43499999999996,2.853749999999991,1807.6025,1207.66125,776.9787500000002,24.014999999999983,2584.72125,1759.4074999999998,2338.3725
19.0,1379.35625,125.68499999999996,2.978749999999991,1807.9775,1207.66125,776.7287500000002,24.264999999999983,2584.97125,1760.7824999999998,2338.6225
19.1,1387.35625,127.93499999999996,2.978749999999991,1808.4775,1207.53625,776.4787500000002,24.514999999999983,2585.22125,1762.1574999999998,2338.8725
19.2,1394.85625,130.18499999999997,3.103749999999991,1808.7275,1207.16125,775.9787500000002,24.639999999999983,2585.34625,1763.4074999999998,2339.1225
19.3,1402.23125,132.43499999999997,3.103749999999991,1808.9775,1206.66125,775.6037500000002,25.014999999999983,2585.47125,1764.6574999999998,2339.2475
19.4,1409.23125,134.68499999999997,3.103749999999991,1809.2275,1206.16125,774.9787500000002,25.139999999999983,2585.47125,1765.7824999999998,2339.3725
19.5,1415.85625,137.05999999999997,3.228749999999991,1809.3525,1205.41125,774.3537500000002,25.139999999999983,2585.59625,1766.7824999999998,2339.4975
19.6,1422.35625,139.18499999999997,3.353749999999991,1809.3525,1204.53625,773.6037500000002,25.264999999999983,2585.59625,1767.7824999999998,2339.4975
19.7,1428.48125,141.43499999999997,3.353749999999991,1809.3525,1203.66125,772.8537500000002,25.389999999999983,2585.59625,1768.6574999999998,2339.4975
19.8,1434.23125,143.68499999999997,3.478749999999991,1809.2275,1202.66125,771.9787500000002,25.639999999999983,2585.47125,1769.5324999999998,2339.4975
19.9,1439.85625,145.93499999999997,3.478749999999991,1809.2275,1201.41125,771.1037500000002,25.639999999999983,2585.34625,1770.2824999999998,2339.4975
20.0,1445.23125,148.18499999999997,3.603749999999991,1808.9775,1200.16125,770.2287500000002,25.889999999999983,2585.22125,1770.9074999999998,2339.3725
20.1,1450.23125,150.30999999999997,3.603749999999991,1808.7275,1198.91125,769.2287500000002,26.014999999999983,2585.09625,1771.5324999999998,2339.2475
20.2,1455.10625,152.68499999999997,3.728749999999991,1808.4775,1197.53625,768.1037500000002,26.139999999999983,2584.97125,1772.1574999999998,2338.9975
20.3,1459.85625,154.80999999999997,3.728749999999991,1808.1025,1196.03625,766.9787500000002,26.264999999999983,2584.72125,1772.6574999999998,2338.8725
20.4,1464.23125,157.05999999999997,3.853749999999991,1807.7275,1194.41125,765.8537500000002,26.389999999999983,2584.59625,1773.1574999999998,2338.6225
20.5,1468.35625,159.18499999999997,3.978749999999991,1807.3525,1192.78625,764.7287500000002,26.514999999999983,2584.34625,1773.6574999999998,2338.3725
20.6,1472.48125,161.43499999999997,3.978749999999991,1806.8525,1190.91125,763.3537500000002,26.639999999999983,2584.09625,1774.0324999999998,2337.9975
20.7,1476.23125,163.55999999999997,3.978749999999991,1806.3525,1189.03625,762.1037500000002,26.639999999999983,2583.84625,1774.2824999999998,2337.7475
20.8,1479.85625,165.80999999999997,4.103749999999991,1805.8525,1187.16125,760.7287500000002,27.014999999999983,2583.47125,1774.5324999999998,2337.4975
20.9,1483.35625,167.93499999999997,4.103749999999991,1805.2275,1185.03625,759.3537500000002,27.264999999999983,2583.22125,1774.9074999999998,2337.1225
21.0,1486.48125,170.05999999999997,4.228749999999991,1804.6025,1183.03625,757.9787500000002,27.264999999999983,2582.84625,1775.1574999999998,2336.7475
21.1,1489.73125,172.18499999999997,4.228749999999991,1803.8525,1180.91125,756.4787500000002,27.264999999999983,2582.47125,1775.2824999999998,2336.3725
21.2,1492.60625,174.43499999999997,4.353749999999991,1803.1025,1178.78625,754.9787500000002,27.639999999999983,2582.09625,1775.4074999999998,2335.9975
21.3,1495.48125,176.55999999999997,4.353749999999991,1802.3525,1176.53625,753.4787500000002,27.764999999999983,2581.72125,1775.5324999999998,2335.4975
21.4,1498.10625,178.68499999999997,4.353749999999991,1801.6025,1174.28625,751.8537500000002,27.639999999999983,2581.34625,1775.5324999999998,2335.1225
21.5,1500.60625,180.80999999999997,4.478749999999991,1800.7275,1172.03625,750.2287500000002,27.764999999999983,2580.84625,1775.5324999999998,2334.4975
21.6,1502.98125,182.80999999999997,4.478749999999991,1799.8525,1169.53625,748.6037500000002,28.014999999999983,2580.47125,1775.5324999999998,2334.1225
21.7,1505.10625,185.05999999999997,4.478749999999991,1798.8525,1167.16125,746.8537500000002,28.014999999999983,2580.09625,1775.5324999999998,2333.4975
21.8,1507.23125,187.05999999999997,4.603749999999991,1797.8525,1164.53625,745.2287500000002,28.014999999999983,2579.59625,1775.5324999999998,2332.9975
21.9,1509.23125,189.18499999999997,4.603749999999991,1796.9775,1161.91125,743.4787500000002,28.139999999999983,2579.09625,1775.4074999999998,2332.3725
22.0,1511.10625,191.30999999999997,4.728749999999991,1795.8525,1159.16125,741.8537500000002,28.389999999999983,2578.59625,1775.2824999999998,2331.7475
22.1,1512.73125,193.30999999999997,4.728749999999991,1794.8525,1156.41125,740.1037500000002,28.264999999999983,2578.22125,1775.0324999999998,2331.2475
22.2,1514.48125,195.30999999999997,4.853749999999991,1793.7275,1153.66125,738.2287500000002,28.389999999999983,2577.59625,1774.9074999999998,2330.6225
22.3,1515.98125,197.30999999999997,4.853749999999991,1792.6025,1150.78625,736.4787500000002,28.514999999999983,2577.22125,1774.6574999999998,2329.9975
