time(s),F1,F2,F3,F4,F5,F6,F7,F8,F9,F10
10.0,0.9637499999998907,0.5750000000000455,0.0637500000000272,-1.4974999999999454,-2.477499999999964,-2.2362499999999272,0.008749999999992,-1.1787500000000364,-2.494999999999891,-4.698750000000018
10.1,0.9637499999998907,0.7000000000000455,0.0637500000000272,-1.6224999999999454,-2.602499999999964,-2.3612499999999272,-0.1162500000000079,-1.1787500000000364,-2.494999999999891,-4.823750000000018
10.2,0.9637499999998907,0.5750000000000455,-0.0612499999999727,-1.7474999999999454,-2.727499999999964,-2.4862499999999272,-0.1162500000000079,-1.3037500000000364,-2.619999999999891,-4.823750000000018
10.3,0.9637499999998907,0.5750000000000455,0.0637500000000272,-1.8724999999999452,-2.727499999999964,-2.4862499999999272,-0.2412500000000079,-1.4287500000000364,-2.619999999999891,-4.948750000000018
10.4,0.9637499999998907,0.5750000000000455,-0.0612499999999727,-1.9974999999999452,-2.727499999999964,-2.6112499999999272,-0.1162500000000079,-1.4287500000000364,-2.494999999999891,-4.948750000000018
10.5,0.8387499999998909,0.5750000000000455,-0.0612499999999727,-2.122499999999945,-2.852499999999964,-2.6112499999999272,0.008749999999992,-1.5537500000000364,-2.619999999999891,-4.948750000000018
10.6,0.8387499999998909,0.5750000000000455,-0.1862499999999727,-2.247499999999945,-2.852499999999964,-2.7362499999999272,0.008749999999992,-1.6787500000000364,-2.619999999999891,-4.448750000000018
10.7,0.9637499999998907,0.5750000000000455,-0.1862499999999727,-2.372499999999945,-2.852499999999964,-2.7362499999999272,0.008749999999992,-1.6787500000000364,-2.619999999999891,-3.198750000000018
10.8,1.0887499999998909,0.5750000000000455,-0.0612499999999727,-2.372499999999945,-2.727499999999964,-2.6112499999999272,0.008749999999992,-1.6787500000000364,-2.619999999999891,0.0512499999999818
10.9,1.4637499999998909,0.5750000000000455,-0.1862499999999727,-2.247499999999945,-2.227499999999964,-2.3612499999999272,0.133749999999992,-1.6787500000000364,-2.494999999999891,7.176249999999982
11.0,2.088749999999891,0.5750000000000455,-0.1862499999999727,-1.4974999999999454,-1.1024999999999636,-1.6112499999999272,0.258749999999992,-1.3037500000000364,-1.8699999999998909,19.676249999999985
11.1,3.088749999999891,0.7000000000000455,-0.1862499999999727,0.2525000000000545,1.6475000000000364,-0.1112499999999272,0.258749999999992,-0.3037500000000364,-0.2449999999998908,39.42624999999998
11.2,4.838749999999891,0.7000000000000455,-0.1862499999999727,4.127500000000055,6.022500000000036,2.6387500000000728,0.508749999999992,2.321249999999964,3.255000000000109,70.05124999999998
11.3,7.338749999999891,0.7000000000000455,-0.1862499999999727,11.627500000000056,12.272500000000036,7.013750000000073,0.883749999999992,7.196249999999964,9.88000000000011,113.55124999999998
11.4,10.83874999999989,0.9500000000000456,-0.1862499999999727,23.62750000000005,20.02250000000004,13.263750000000073,1.133749999999992,15.821249999999964,21.00500000000011,171.80124999999998
11.5,15.46374999999989,1.0750000000000457,-0.1862499999999727,41.377500000000055,29.27250000000004,21.513750000000076,1.508749999999992,30.071249999999964,39.00500000000011,247.92625
11.6,21.08874999999989,1.4500000000000457,-0.1862499999999727,65.62750000000005,40.14750000000004,32.01375000000007,1.758749999999992,51.57124999999997,64.75500000000011,342.30125
11.7,27.83874999999989,1.8250000000000453,-0.1862499999999727,97.12750000000004,52.39750000000004,44.13875000000007,2.258749999999992,81.94624999999996,98.88000000000012,454.05125
11.8,36.08874999999989,2.075000000000045,-0.1862499999999727,137.00250000000003,66.64750000000004,58.26375000000007,2.383749999999992,123.57124999999996,142.3800000000001,581.67625
11.9,45.46374999999989,2.700000000000045,-0.1862499999999727,185.62750000000003,82.89750000000004,74.38875000000007,2.758749999999992,177.69624999999996,194.0050000000001,718.17625
12.0,55.96374999999989,3.200000000000045,-0.1862499999999727,242.12750000000003,101.02250000000004,92.01375000000009,3.258749999999992,244.57125,252.1300000000001,856.55125
12.1,67.71374999999989,3.9500000000000455,-0.1862499999999727,307.25250000000005,121.39750000000004,111.38875000000009,3.758749999999992,325.69625,315.8800000000001,997.30125
12.2,80.71374999999989,4.7000000000000455,-0.1862499999999727,379.87750000000005,144.02250000000004,132.13875000000007,4.258749999999992,420.69625,383.1300000000001,1133.42625
12.3,94.83874999999988,5.7000000000000455,-0.1862499999999727,458.00250000000005,168.52250000000004,153.76375000000007,4.633749999999992,528.07125,451.6300000000001,1259.17625
12.4,110.21374999999988,6.4500000000000455,-0.1862499999999727,541.5025,195.27250000000004,176.63875000000007,5.133749999999992,649.32125,521.7550000000001,1375.05125
12.5,126.83874999999988,7.450000000000045,-0.0612499999999727,627.6275,224.02250000000004,200.38875000000007,5.633749999999992,781.32125,591.5050000000001,1478.42625
12.6,144.4637499999999,8.325000000000045,-0.0612499999999727,713.8775,254.52250000000004,224.63875000000007,6.008749999999992,919.82125,659.6300000000001,1569.55125
12.7,163.3387499999999,9.450000000000044,-0.1862499999999727,800.2525,286.89750000000004,249.76375000000007,6.508749999999992,1064.07125,727.1300000000001,1650.80125
12.8,183.2137499999999,10.575000000000044,-0.0612499999999727,884.0025,320.52250000000004,275.1387500000001,7.008749999999992,1209.32125,792.8800000000001,1721.55125
12.9,203.9637499999999,11.700000000000044,-0.0612499999999727,963.3775,354.77250000000004,300.3887500000001,7.383749999999992,1350.57125,856.1300000000001,1782.92625
13.0,225.9637499999999,13.075000000000044,-0.0612499999999727,1039.1275,390.2725,325.8887500000001,7.883749999999992,1487.44625,917.63,1837.67625
13.1,248.7137499999999,14.325000000000044,-0.0612499999999727,1109.5025,426.5225,350.8887500000001,8.508749999999992,1615.07125,976.38,1886.30125
13.2,272.0887499999999,15.575000000000044,-0.0612499999999727,1173.7525,462.8975,375.5137500000001,8.883749999999992,1730.32125,1031.505,1928.67625
13.3,296.4637499999999,16.950000000000045,-0.0612499999999727,1233.1275,499.8975,399.8887500000001,9.258749999999992,1834.82125,1084.13,1966.80125
13.4,321.4637499999999,18.325000000000045,-0.0612499999999727,1287.1275,536.7725,423.7637500000001,9.633749999999992,1927.07125,1133.505,2001.30125
13.5,346.9637499999999,19.825000000000045,-0.0612499999999727,1335.6275,573.2725,446.7637500000001,10.008749999999992,2007.07125,1179.38,2032.17625
13.6,373.2137499999999,21.325000000000045,0.0637500000000272,1379.7525,609.8975,469.2637500000001,10.258749999999992,2077.44625,1222.505,2060.42625
13.7,399.7137499999999,22.950000000000045,0.0637500000000272,1419.2525,645.6475,490.7637500000001,10.883749999999992,2137.69625,1262.505,2085.55125
13.8,426.8387499999999,24.450000000000045,0.0637500000000272,1455.2525,681.0225,511.5137500000001,11.258749999999992,2190.57125,1300.13,2108.42625
13.9,454.4637499999999,26.200000000000045,0.1887500000000272,1487.6275,715.6475,531.3887500000001,11.758749999999992,2236.44625,1335.005,2129.17625
14.0,482.0887499999999,27.825000000000045,0.0637500000000272,1516.5025,748.8975,550.2637500000001,12.258749999999992,2276.07125,1367.005,2147.80125
14.1,510.0887499999999,29.700000000000045,0.1887500000000272,1542.8775,781.3975,568.2637500000001,12.508749999999992,2310.82125,1397.005,2164.80125
14.2,538.4637499999999,31.450000000000045,0.0637500000000272,1566.8775,812.5225,585.5137500000001,12.883749999999992,2341.19625,1424.755,2180.05125
14.3,566.5887499999999,33.075000000000045,0.1887500000000272,1588.2525,842.0225,601.6387500000001,13.508749999999992,2367.57125,1450.255,2193.80125
14.4,595.2137499999999,35.075000000000045,0.1887500000000272,1607.8775,870.6475,617.0137500000001,13.758749999999992,2391.07125,1474.13,2206.55125
14.5,623.7137499999999,36.950000000000045,0.1887500000000272,1626.0025,897.7725,631.6387500000001,14.133749999999992,2411.94625,1496.255,2218.17625
14.6,651.9637499999999,38.825000000000045,0.3137500000000273,1642.1275,923.3975,645.1387500000001,14.508749999999992,2430.07125,1516.63,2229.05125
14.7,680.3387499999999,40.825000000000045,0.3137500000000273,1657.2525,947.8975,658.1387500000001,14.883749999999992,2446.32125,1535.755,2239.05125
14.8,708.4637499999999,42.825000000000045,0.3137500000000273,1671.1275,971.1475,670.5137500000001,15.133749999999992,2460.69625,1553.505,2248.42625
14.9,736.3387499999999,44.825000000000045,0.3137500000000273,1683.7525,993.0225,681.8887500000001,15.508749999999992,2473.32125,1570.005,2256.92625
15.0,764.0887499999999,46.950000000000045,0.4387500000000273,1695.6275,1013.7725,692.8887500000001,15.758749999999992,2484.69625,1585.38,2264.92625
15.1,791.4637499999999,49.075000000000045,0.4387500000000273,1706.6275,1033.6475,703.2637500000001,16.258749999999992,2494.94625,1599.63,2272.30125
15.2,818.3387499999999,51.200000000000045,0.4387500000000273,1716.6275,1052.0225,712.7637500000001,16.633749999999992,2503.94625,1612.88,2279.17625
15.3,845.0887499999999,53.200000000000045,0.5637500000000273,1726.0025,1069.7725,721.8887500000001,17.008749999999992,2512.19625,1625.38,2285.67625
15.4,871.4637499999999,55.575000000000045,0.5637500000000273,1734.6275,1086.2725,730.3887500000001,17.258749999999992,2519.69625,1637.005,2291.42625
15.5,897.0887499999999,57.700000000000045,0.5637500000000273,1742.6275,1101.7725,738.2637500000001,17.383749999999992,2526.32125,1647.63,2296.92625
15.6,922.58875,60.075000000000045,0.6887500000000273,1750.1275,1116.5225,745.8887500000001,17.883749999999992,2532.44625,1657.755,2301.92625
15.7,947.58875,62.325000000000045,0.6887500000000273,1757.1275,1130.2725,752.8887500000001,18.258749999999992,2537.94625,1667.13,2306.55125
15.8,971.71375,64.70000000000005,0.8137500000000273,1763.6275,1143.1475,759.5137500000001,18.508749999999992,2542.82125,1675.88,2310.80125
15.9,995.58875,66.95000000000005,0.8137500000000273,1769.6275,1155.3975,765.7637500000001,18.883749999999992,2547.44625,1684.13,2314.67625
16.0,1018.96375,69.32500000000005,0.8137500000000273,1775.3775,1166.7725,771.5137500000001,19.258749999999992,2551.57125,1691.755,2318.30125
16.1,1041.58875,71.70000000000005,0.9387500000000272,1780.5025,1177.2725,777.0137500000001,19.633749999999992,2555.32125,1698.755,2321.80125
16.2,1063.83875,74.20000000000005,1.0637500000000273,1785.5025,1187.2725,782.0137500000001,19.883749999999992,2558.69625,1705.505,2324.80125
16.3,1085.46375,76.57500000000005,1.0637500000000273,1790.0025,1196.6475,786.7637500000001,20.133749999999992,2562.07125,1711.88,2327.67625
16.4,1106.21375,78.95000000000005,1.1887500000000273,1794.3775,1205.2725,791.2637500000001,20.383749999999992,2564.82125,1717.63,2330.42625
16.5,1126.71375,81.45000000000005,1.1887500000000273,1798.2525,1213.5225,795.3887500000001,20.633749999999992,2567.57125,1723.255,2332.92625
16.6,1146.46375,83.95000000000005,1.3137500000000273,1802.0025,1221.1475,799.2637500000001,21.008749999999992,2569.94625,1728.38,2335.30125
16.7,1165.46375,86.45000000000005,1.3137500000000273,1805.5025,1228.2725,802.8887500000001,21.383749999999992,2572.19625,1733.255,2337.55125
16.8,1184.08875,88.95000000000005,1.4387500000000273,1808.7525,1234.7725,806.2637500000001,21.633749999999992,2574.32125,1737.755,2339.67625
16.9,1201.96375,91.57500000000005,1.4387500000000273,1811.7525,1240.8975,809.2637500000001,21.883749999999992,2576.19625,1742.005,2341.67625
17.0,1219.33875,94.20000000000005,1.5637500000000273,1814.6275,1246.6475,812.1387500000001,22.008749999999992,2577.94625,1746.13,2343.42625
17.1,1236.21375,96.70000000000005,1.6887500000000273,1817.2525,1252.0225,814.8887500000001,22.383749999999992,2579.44625,1749.88,2345.17625
17.2,1252.21375,99.32500000000005,1.6887500000000273,1819.6275,1256.7725,817.3887500000001,22.758749999999992,2581.07125,1753.38,2346.80125
17.3,1267.83875,101.95000000000005,1.8137500000000275,1821.8775,1261.2725,819.5137500000001,23.008749999999992,2582.32125,1756.88,2348.30125
17.4,1282.96375,104.57500000000005,1.8137500000000275,1824.1275,1265.5225,821.6387500000001,23.258749999999992,2583.69625,1760.005,2349.67625
17.5,1297.33875,107.20000000000005,1.9387500000000275,1826.0025,1269.2725,823.5137500000001,23.508749999999992,2584.82125,1763.005,2350.92625
17.6,1311.33875,109.82500000000005,1.9387500000000275,1827.8775,1272.8975,825.3887500000001,23.758749999999992,2585.82125,1765.755,2352.17625
17.7,1324.71375,112.57500000000005,2.0637500000000277,1829.5025,1276.1475,826.8887500000001,24.008749999999992,2586.82125,1768.38,2353.30125
17.8,1337.58875,115.20000000000005,2.1887500000000277,1831.1275,1279.1475,828.3887500000001,24.133749999999992,2587.69625,1770.88,2354.30125
17.9,1349.96375,117.95000000000005,2.1887500000000277,1832.6275,1281.8975,829.5137500000001,24.508749999999992,2588.57125,1773.13,2355.30125
18.0,1361.83875,120.57500000000005,2.3137500000000277,1833.8775,1284.3975,830.7637500000001,24.883749999999992,2589.32125,1775.38,2356.17625
18.1,1373.08875,123.32500000000005,2.4387500000000277,1835.1275,1286.5225,831.7637500000001,25.008749999999992,2589.94625,1777.38,2356.92625
18.2,1383.96375,125.95000000000005,2.4387500000000277,1836.2525,1288.5225,832.5137500000001,25.258749999999992,2590.57125,1779.38,2357.67625
18.3,1394.46375,128.70000000000005,2.5637500000000277,1837.2525,1290.2725,833.2637500000001,25.633749999999992,2591.07125,1781.255,2358.42625
18.4,1404.33875,131.45000000000005,2.5637500000000277,1838.2525,1291.7725,833.8887500000001,25.758749999999992,2591.57125,1783.005,2359.05125
18.5,1413.96375,134.20000000000005,2.6887500000000277,1839.0025,1293.1475,834.2637500000001,25.883749999999992,2592.07125,1784.63,2359.67625
18.6,1423.08875,136.95000000000005,2.6887500000000277,1839.7525,1294.3975,834.6387500000001,26.133749999999992,2592.44625,1786.13,2360.30125
18.7,1431.83875,139.70000000000005,2.8137500000000277,1840.5025,1295.3975,834.8887500000001,26.383749999999992,2592.82125,1787.63,2360.80125
18.8,1440.21375,142.45000000000005,2.8137500000000277,1841.1275,1296.2725,835.1387500000001,26.633749999999992,2593.07125,1788.88,2361.17625
18.9,1448.21375,145.20000000000005,2.8137500000000277,1841.6275,1296.8975,835.1387500000001,26.758749999999992,2593.44625,1790.255,2361.67625
19.0,1455.71375,147.82500000000005,2.9387500000000277,1842.1275,1297.3975,835.1387500000001,26.883749999999992,2593.57125,1791.38,2362.05125
19.1,1463.08875,150.70000000000005,3.0637500000000277,1842.5025,1297.8975,835.0137500000001,27.258749999999992,2593.82125,1792.505,2362.42625
19.2,1469.96375,153.45000000000005,3.0637500000000277,1842.8775,1298.1475,834.8887500000001,27.633749999999992,2594.07125,1793.505,2362.67625
19.3,1476.58875,156.20000000000005,3.1887500000000277,1843.1275,1298.1475,834.6387500000001,27.508749999999992,2594.07125,1794.505,2362.92625
19.4,1482.83875,158.95000000000005,3.3137500000000277,1843.3775,1298.2725,834.3887500000001,27.883749999999992,2594.19625,1795.38,2363.17625
19.5,1488.83875,161.82500000000005,3.3137500000000277,1843.5025,1298.1475,833.8887500000001,28.008749999999992,2594.32125,1796.255,2363.30125
19.6,1494.46375,164.57500000000005,3.4387500000000277,1843.6275,1297.8975,833.5137500000001,28.133749999999992,2594.32125,1797.005,2363.42625
19.7,1499.96375,167.20000000000005,3.4387500000000277,1843.7525,1297.5225,832.8887500000001,28.383749999999992,2594.44625,1797.63,2363.55125
19.8,1505.08875,170.07500000000005,3.5637500000000277,1843.7525,1296.8975,832.3887500000001,28.383749999999992,2594.44625,1798.38,2363.67625
19.9,1509.96375,172.70000000000005,3.5637500000000277,1843.7525,1296.3975,831.6387500000001,28.633749999999992,2594.44625,1798.88,2363.55125
20.0,1514.71375,175.45000000000005,3.6887500000000273,1843.6275,1295.6475,831.0137500000001,28.758749999999992,2594.32125,1799.505,2363.67625
20.1,1519.08875,178.32500000000005,3.8137500000000273,1843.5025,1294.8975,830.2637500000001,29.008749999999992,2594.32125,1800.005,2363.55125
20.2,1523.21375,181.07500000000005,3.8137500000000273,1843.3775,1293.8975,829.3887500000001,29.133749999999992,2594.19625,1800.38,2363.55125
20.3,1527.33875,183.70000000000005,3.8137500000000273,1843.1275,1292.8975,828.5137500000001,29.383749999999992,2594.07125,1800.88,2363.42625
20.4,1531.08875,186.57500000000005,3.9387500000000273,1842.8775,1291.7725,827.6387500000001,29.508749999999992,2593.94625,1801.255,2363.42625
20.5,1534.58875,189.32500000000005,4.063750000000027,1842.6275,1290.6475,826.6387500000001,29.633749999999992,2593.82125,1801.63,2363.30125
20.6,1538.08875,192.07500000000005,4.063750000000027,1842.2525,1289.3975,825.6387500000001,29.883749999999992,2593.57125,1802.005,2363.05125
20.7,1541.21375,194.70000000000005,4.188750000000027,1841.8775,1288.0225,824.5137500000001,30.008749999999992,2593.32125,1802.13,2362.80125
20.8,1544.21375,197.45000000000005,4.188750000000027,1841.5025,1286.5225,823.3887500000001,30.133749999999992,2593.19625,1802.38,2362.67625
20.9,1547.21375,200.07500000000005,4.313750000000027,1841.0025,1284.8975,822.1387500000001,30.383749999999992,2592.94625,1802.63,2362.42625
21.0,1549.96375,202.82500000000005,4.313750000000027,1840.5025,1283.2725,820.8887500000001,30.633749999999992,2592.69625,1802.755,2362.30125
21.1,1552.46375,205.45000000000005,4.438750000000027,1840.0025,1281.6475,819.6387500000001,30.633749999999992,2592.44625,1802.88,2362.05125
21.2,1554.83875,208.20000000000005,4.563750000000027,1839.5025,1279.8975,818.2637500000001,30.883749999999992,2592.19625,1803.005,2361.80125
21.3,1557.21375,210.70000000000005,4.563750000000027,1838.8775,1278.0225,817.0137500000001,31.008749999999992,2591.94625,1803.13,2361.42625
21.4,1559.33875,213.45000000000005,4.688750000000027,1838.2525,1276.1475,815.6387500000001,31.133749999999992,2591.69625,1803.255,2361.17625
21.5,1561.33875,216.07500000000005,4.688750000000027,1837.6275,1274.1475,814.2637500000001,31.383749999999992,2591.32125,1803.255,2360.80125
21.6,1563.21375,218.70000000000005,4.813750000000027,1836.8775,1272.1475,812.7637500000001,31.508749999999992,2591.07125,1803.255,2360.42625
21.7,1565.08875,221.45000000000005,4.813750000000027,1836.2525,1270.0225,811.2637500000001,31.633749999999992,2590.57125,1803.13,2360.05125
21.8,1566.71375,224.07500000000005,4.938750000000027,1835.5025,1267.7725,809.7637500000001,31.633749999999992,2590.19625,1803.255,2359.67625
21.9,1568.33875,226.57500000000005,5.063750000000027,1834.7525,1265.6475,808.2637500000001,31.883749999999992,2589.94625,1803.13,2359.30125
22.0,1569.71375,229.20000000000005,5.063750000000027,1833.8775,1263.2725,806.6387500000001,32.00874999999999,2589.57125,1803.005,2358.80125
22.1,1571.08875,231.70000000000005,5.063750000000027,1833.1275,1261.0225,805.0137500000001,32.13374999999999,2589.07125,1802.88,2358.42625
22.2,1572.33875,234.32500000000005,5.188750000000027,1832.2525,1258.5225,803.2637500000001,32.25874999999999,2588.69625,1802.755,2358.05125
22.3,1573.58875,236.82500000000005,5.188750000000027,1831.3775,1256.1475,801.6387500000001,32.50874999999999,2588.32125,1802.63,2357.55125
22.4,1574.58875,239.32500000000005,5.313750000000027,1830.5025,1253.6475,799.7637500000001,32.63374999999999,2587.82125,1802.38,2357.05125
22.5,1575.58875,241.82500000000005,5.313750000000027,1829.5025,1251.1475,797.8887500000001,32.75874999999999,2587.44625,1802.255,2356.67625
22.6,1576.58875,244.45000000000005,5.438750000000027,1828.5025,1248.6475,796.1387500000001,32.88374999999999,2586.94625,1802.13,2356.17625
22.7,1577.33875,246.95000000000005,5.438750000000027,1827.5025,1246.0225,794.2637500000001,33.00874999999999,2586.57125,1801.755,2355.55125
22.8,1578.21375,249.32500000000005,5.563750000000027,1826.6275,1243.3975,792.3887500000001,33.13374999999999,2586.07125,1801.63,2355.05125
22.9,1578.83875,251.82500000000005,5.563750000000027,1825.5025,1240.6475,790.5137500000001,33.13374999999999,2585.57125,1801.38,2354.42625
23.0,1579.46375,254.20000000000005,5.688750000000027,1824.3775,1237.8975,788.6387500000001,33.25874999999999,2585.07125,1801.005,2353.80125
