time(s),F1,F2,F3,F4,F5,F6,F7,F8,F9,F10
10.0,0.1150000000000091,0.7062499999999545,-0.6162500000000364,-0.4887499999999818,-3.5650000000000546,-3.181250000000091,-0.2199999999999988,-1.4362499999999727,-1.6300000000001091,-3.566250000000082
10.1,0.1150000000000091,0.7062499999999545,-0.7412500000000364,-0.6137499999999818,-3.690000000000055,-3.306250000000091,-0.2199999999999988,-1.5612499999999727,-1.8800000000001087,-3.691250000000082
10.2,0.1150000000000091,0.5812499999999545,-0.7412500000000364,-0.7387499999999818,-3.690000000000055,-3.431250000000091,0.0300000000000011,-1.6862499999999727,-2.005000000000109,-3.816250000000082
10.3,0.1150000000000091,0.7062499999999545,-0.7412500000000364,-0.8637499999999818,-3.815000000000055,-3.431250000000091,-0.0949999999999988,-1.9362499999999727,-2.005000000000109,-3.941250000000082
10.4,-0.0099999999999909,0.7062499999999545,-0.8662500000000364,-1.1137499999999818,-3.940000000000055,-3.556250000000091,-0.3449999999999988,-1.9362499999999727,-2.005000000000109,-3.941250000000082
10.5,-0.0099999999999909,0.5812499999999545,-0.8662500000000364,-1.1137499999999818,-4.065000000000055,-3.681250000000091,-0.3449999999999988,-2.0612499999999727,-2.005000000000109,-3.816250000000082
10.6,-0.0099999999999909,0.5812499999999545,-0.9912500000000364,-1.2387499999999818,-4.065000000000055,-3.681250000000091,-0.3449999999999988,-2.1862499999999727,-2.005000000000109,-3.316250000000082
10.7,-0.0099999999999909,0.5812499999999545,-0.9912500000000364,-1.3637499999999818,-3.940000000000055,-3.681250000000091,-0.2199999999999988,-2.3112499999999727,-2.005000000000109,-2.441250000000082
10.8,-0.0099999999999909,0.7062499999999545,-0.9912500000000364,-1.4887499999999818,-3.815000000000055,-3.556250000000091,-0.3449999999999988,-2.3112499999999727,-2.005000000000109,-0.5662500000000819
10.9,0.2400000000000091,0.5812499999999545,-0.9912500000000364,-1.3637499999999818,-3.3150000000000546,-3.306250000000091,-0.2199999999999988,-2.4362499999999727,-1.8800000000001087,2.683749999999918
11.0,0.6150000000000091,0.7062499999999545,-0.9912500000000364,-0.8637499999999818,-2.4400000000000546,-2.681250000000091,-0.2199999999999988,-2.1862499999999727,-1.5050000000001091,8.058749999999918
11.1,1.240000000000009,0.5812499999999545,-1.1162500000000364,0.1362500000000182,-1.1900000000000546,-1.431250000000091,-0.0949999999999988,-1.6862499999999727,-0.6300000000001091,16.808749999999918
11.2,2.240000000000009,0.7062499999999545,-1.1162500000000364,2.011250000000018,1.0599999999999454,0.318749999999909,0.0300000000000011,-0.5612499999999727,1.2449999999998909,29.55874999999992
11.3,3.740000000000009,0.5812499999999545,-1.1162500000000364,5.386250000000018,4.059999999999945,2.943749999999909,0.1550000000000011,1.8137500000000275,4.494999999999891,46.55874999999992
11.4,5.615000000000009,0.8312499999999545,-1.1162500000000364,10.761250000000018,7.934999999999945,6.693749999999909,0.0300000000000011,5.813750000000027,10.11999999999989,68.30874999999992
11.5,7.865000000000009,0.8312499999999545,-1.1162500000000364,18.386250000000015,12.934999999999944,11.318749999999907,0.4050000000000011,12.563750000000027,18.74499999999989,95.55874999999992
11.6,10.740000000000007,0.9562499999999544,-1.1162500000000364,29.011250000000015,18.934999999999945,17.06874999999991,0.5300000000000011,22.313750000000027,30.86999999999989,129.80874999999992
11.7,14.240000000000007,1.0812499999999543,-1.1162500000000364,42.63625000000002,26.059999999999945,23.56874999999991,0.7800000000000011,36.18875000000003,46.74499999999989,172.05874999999992
11.8,18.36500000000001,1.3312499999999543,-1.2412500000000364,60.01125000000002,34.309999999999945,30.94374999999991,0.9050000000000012,54.68875000000003,66.74499999999989,223.18374999999992
11.9,22.86500000000001,1.5812499999999543,-1.1162500000000364,81.01125000000002,43.684999999999945,39.06874999999991,1.4050000000000011,78.18875000000003,90.11999999999988,282.6837499999999
12.0,27.99000000000001,1.8312499999999543,-1.2412500000000364,105.63625000000002,53.934999999999945,47.94374999999991,1.7800000000000011,106.81375000000004,116.74499999999988,349.6837499999999
12.1,33.86500000000001,2.0812499999999545,-1.2412500000000364,134.38625000000002,65.30999999999995,57.44374999999991,1.7800000000000011,141.31375000000003,146.6199999999999,425.1837499999999
12.2,40.24000000000001,2.4562499999999545,-1.2412500000000364,167.01125000000002,77.80999999999995,67.44374999999991,2.280000000000001,181.93875000000003,179.4949999999999,507.8087499999999
12.3,47.11500000000001,2.8312499999999545,-1.2412500000000364,203.01125,90.80999999999996,78.06874999999991,2.405000000000001,228.68875000000003,214.4949999999999,594.1837499999999
12.4,54.61500000000001,3.3312499999999545,-1.1162500000000364,243.13625,104.93499999999996,89.19374999999991,2.530000000000001,282.68875,251.9949999999999,684.3087499999999
12.5,62.61500000000001,3.7062499999999545,-1.2412500000000364,286.51125,119.55999999999996,100.69374999999992,2.905000000000001,343.31375,291.4949999999999,775.5587499999999
12.6,71.11500000000001,4.2062499999999545,-1.1162500000000364,332.51125,134.80999999999997,112.44374999999992,3.155000000000001,410.18875,331.9949999999999,865.1837499999999
12.7,80.24000000000001,4.7062499999999545,-1.2412500000000364,381.76125,150.68499999999997,124.81874999999992,3.405000000000001,484.06375,374.2449999999999,953.55875
12.8,89.86500000000001,5.2062499999999545,-1.2412500000000364,433.38625,167.30999999999997,137.3187499999999,3.780000000000001,563.56375,417.3699999999999,1038.30875
12.9,99.99,5.7062499999999545,-1.2412500000000364,486.13625,184.18499999999997,150.1937499999999,4.280000000000001,647.06375,460.6199999999999,1118.55875
13.0,110.615,6.3312499999999545,-1.2412500000000364,540.76125,201.80999999999997,163.3187499999999,4.405000000000001,735.06375,504.2449999999999,1195.68375
13.1,121.615,6.9562499999999545,-1.2412500000000364,596.01125,219.93499999999997,176.6937499999999,4.655000000000001,826.31375,547.7449999999999,1268.30875
13.2,132.99,7.581249999999954,-1.2412500000000364,650.88625,238.30999999999997,189.9437499999999,4.905000000000001,918.31375,590.3699999999999,1335.30875
13.3,144.99,8.331249999999955,-1.2412500000000364,705.76125,257.30999999999995,203.4437499999999,5.280000000000001,1012.56375,632.4949999999999,1398.05875
13.4,157.24,8.956249999999955,-1.2412500000000364,759.88625,276.68499999999995,216.9437499999999,5.405000000000001,1106.81375,673.8699999999999,1456.18375
13.5,169.865,9.581249999999956,-1.2412500000000364,811.88625,296.18499999999995,230.1937499999999,5.780000000000001,1198.81375,713.7449999999999,1509.05875
13.6,182.99,10.331249999999956,-1.2412500000000364,862.76125,315.80999999999995,243.5687499999999,5.780000000000001,1289.56375,752.9949999999999,1558.18375
13.7,196.49,10.956249999999956,-1.2412500000000364,911.63625,335.55999999999995,256.8187499999999,6.280000000000001,1377.31375,790.9949999999999,1603.30875
13.8,210.115,11.831249999999956,-1.1162500000000364,957.88625,355.05999999999995,269.6937499999999,6.530000000000001,1460.68875,827.4949999999999,1644.68375
13.9,224.365,12.581249999999956,-1.1162500000000364,1002.13625,374.685,282.5687499999999,6.780000000000001,1540.68875,863.2449999999999,1683.30875
14.0,238.49,13.331249999999956,-1.1162500000000364,1043.63625,394.06,294.9437499999999,7.030000000000001,1615.43875,897.4949999999999,1718.55875
14.1,253.24,14.206249999999956,-1.1162500000000364,1083.01125,413.435,307.3187499999999,7.030000000000001,1685.81375,930.995,1751.18375
14.2,268.115,15.081249999999956,-1.1162500000000364,1120.01125,432.56,319.3187499999999,7.405000000000001,1751.18875,962.995,1781.30875
14.3,283.115,15.831249999999956,-1.1162500000000364,1154.13625,451.31,330.9437499999999,7.655000000000001,1811.06375,993.62,1809.05875
14.4,298.49,16.706249999999955,-0.9912500000000364,1186.51125,469.935,342.1937499999999,7.780000000000001,1866.81375,1023.245,1834.93375
14.5,313.99,17.581249999999955,-0.9912500000000364,1216.63625,488.185,353.1937499999999,8.155000000000001,1917.81375,1051.495,1858.80875
14.6,329.49,18.331249999999955,-0.9912500000000364,1244.51125,506.06,363.8187499999999,8.405000000000001,1964.06375,1078.245,1880.55875
14.7,345.24,19.206249999999955,-0.9912500000000364,1270.63625,523.56,374.0687499999999,8.655000000000001,2006.68875,1104.12,1900.93375
14.8,361.24,20.206249999999955,-0.9912500000000364,1295.01125,540.685,384.0687499999999,8.655000000000001,2045.68875,1128.745,1919.80875
14.9,377.115,21.081249999999955,-0.9912500000000364,1317.38625,557.185,393.4437499999999,9.03,2080.8137500000003,1152.12,1937.05875
15.0,393.365,22.081249999999955,-0.9912500000000364,1338.38625,573.31,402.6937499999999,9.155,2113.3137500000003,1174.62,1953.18375
15.1,409.49,22.956249999999955,-0.8662500000000364,1358.01125,589.06,411.4437499999999,9.28,2142.9387500000003,1195.995,1968.18375
15.2,425.615,23.831249999999955,-0.8662500000000364,1375.88625,604.06,419.8187499999999,9.53,2169.8137500000003,1216.245,1982.05875
15.3,441.99,24.956249999999955,-0.8662500000000364,1392.88625,618.685,427.9437499999999,9.78,2194.6887500000003,1235.745,1995.30875
15.4,458.24,25.956249999999955,-0.7412500000000364,1408.63625,632.81,435.6937499999999,9.905,2217.4387500000003,1254.37,2007.68375
15.5,474.49,26.831249999999955,-0.7412500000000364,1423.13625,646.31,442.9437499999999,10.155,2238.0637500000003,1271.745,2019.30875
15.6,490.74,27.956249999999955,-0.7412500000000364,1436.88625,659.31,450.0687499999999,10.405,2257.1887500000003,1288.745,2030.43375
15.7,507.115,28.831249999999955,-0.6162500000000364,1449.63625,671.81,456.8187499999999,10.405,2274.8137500000003,1304.745,2040.80875
15.8,523.24,29.831249999999955,-0.6162500000000364,1461.38625,683.81,463.1937499999999,10.405,2290.9387500000003,1319.995,2050.43375
15.9,539.49,30.831249999999955,-0.6162500000000364,1472.51125,695.31,469.3187499999999,10.78,2305.9387500000003,1334.62,2059.68375
16.0,555.615,31.956249999999955,-0.6162500000000364,1482.88625,706.435,475.0687499999999,10.905,2319.8137500000003,1348.495,2068.43375
16.1,571.615,32.956249999999955,-0.4912500000000364,1492.51125,716.81,480.6937499999999,11.28,2332.4387500000003,1361.62,2076.80875
16.2,587.615,34.081249999999955,-0.4912500000000364,1501.63625,726.935,485.9437499999999,11.405,2344.3137500000003,1374.37,2084.68375
16.3,603.615,35.081249999999955,-0.4912500000000364,1510.13625,736.56,490.9437499999999,11.53,2355.3137500000003,1386.37,2091.93375
16.4,619.115,36.08124999999996,-0.4912500000000364,1518.13625,745.685,495.5687499999999,11.53,2365.3137500000003,1397.745,2098.80875
16.5,634.74,37.20624999999996,-0.3662500000000364,1525.63625,754.435,500.1937499999999,11.78,2374.6887500000003,1408.745,2105.30875
16.6,650.365,38.20624999999996,-0.2412500000000363,1532.63625,762.81,504.3187499999999,12.03,2383.4387500000003,1419.37,2111.43375
16.7,665.615,39.33124999999996,-0.2412500000000363,1539.26125,770.56,508.4437499999999,12.155,2391.5637500000003,1429.245,2117.18375
16.8,680.865,40.45624999999996,-0.2412500000000363,1545.38625,778.06,512.1937499999999,12.405,2399.0637500000003,1438.745,2122.68375
16.9,695.99,41.58124999999996,-0.2412500000000363,1551.26125,785.185,515.9437499999999,12.53,2406.0637500000003,1447.87,2127.80875
17.0,710.74,42.58124999999996,-0.1162500000000363,1556.63625,791.935,519.3187499999999,12.655,2412.5637500000003,1456.495,2132.68375
17.1,725.49,43.70624999999996,-0.2412500000000363,1561.76125,798.31,522.4437499999999,12.655,2418.5637500000003,1464.87,2137.30875
17.2,739.865,44.83124999999996,-0.1162500000000363,1566.51125,804.31,525.4437499999999,12.78,2424.1887500000003,1472.87,2141.68375
17.3,754.24,46.08124999999996,-0.1162500000000363,1571.01125,809.935,528.3187499999999,12.78,2429.4387500000003,1480.495,2145.80875
17.4,768.49,47.08124999999996,0.0087499999999636,1575.38625,815.185,531.0687499999999,12.905,2434.3137500000003,1487.62,2149.68375
17.5,782.365,48.20624999999996,0.0087499999999636,1579.26125,820.185,533.5687499999999,13.03,2438.8137500000003,1494.495,2153.43375
17.6,796.24,49.45624999999996,0.0087499999999636,1583.01125,824.935,535.8187499999999,13.28,2443.1887500000003,1501.12,2156.93375
17.7,809.74,50.45624999999996,0.0087499999999636,1586.51125,829.31,538.0687499999999,13.405,2447.1887500000003,1507.495,2160.18375
17.8,822.99,51.58124999999996,0.1337499999999636,1589.76125,833.31,540.0687499999999,13.655,2450.8137500000003,1513.495,2163.18375
17.9,836.24,52.70624999999996,0.1337499999999636,1592.88625,837.31,541.9437499999999,13.53,2454.3137500000003,1519.37,2166.18375
18.0,849.115,53.95624999999996,0.1337499999999636,1595.76125,840.81,543.6937499999999,13.655,2457.5637500000003,1524.87,2168.93375
18.1,861.74,54.95624999999996,0.1337499999999636,1598.38625,844.06,545.3187499999999,13.78,2460.5637500000003,1530.12,2171.55875
18.2,874.24,56.20624999999996,0.1337499999999636,1600.88625,847.185,546.8187499999999,13.78,2463.4387500000003,1535.245,2174.05875
18.3,886.74,57.33124999999996,0.2587499999999636,1603.13625,849.935,548.1937499999999,14.28,2466.0637500000003,1539.995,2176.30875
18.4,898.615,58.45624999999996,0.2587499999999636,1605.26125,852.56,549.4437499999999,14.155,2468.4387500000003,1544.62,2178.55875
18.5,910.49,59.58124999999996,0.3837499999999636,1607.26125,854.935,550.6937499999999,14.28,2470.8137500000003,1548.995,2180.68375
18.6,922.115,60.83124999999996,0.3837499999999636,1609.13625,857.185,551.6937499999999,14.405,2472.9387500000003,1553.245,2182.68375
18.7,933.365,61.95624999999996,0.3837499999999636,1610.88625,859.06,552.5687499999999,14.53,2474.9387500000003,1557.37,2184.43375
18.8,944.49,63.08124999999996,0.5087499999999636,1612.38625,860.935,553.3187499999999,14.655,2476.6887500000003,1561.12,2186.18375
18.9,955.49,64.20624999999995,0.5087499999999636,1613.88625,862.435,554.0687499999999,14.655,2478.4387500000003,1564.87,2187.80875
19.0,966.115,65.33124999999995,0.5087499999999636,1615.13625,863.81,554.6937499999999,14.78,2480.0637500000003,1568.37,2189.30875
19.1,976.615,66.58124999999995,0.5087499999999636,1616.26125,864.935,555.1937499999999,14.78,2481.5637500000003,1571.745,2190.68375
19.2,986.865,67.58124999999995,0.6337499999999636,1617.38625,865.935,555.5687499999999,15.155,2482.9387500000003,1574.87,2192.05875
19.3,996.865,68.83124999999995,0.6337499999999636,1618.26125,866.81,555.9437499999999,15.155,2484.1887500000003,1577.995,2193.30875
19.4,1006.74,69.95624999999995,0.6337499999999636,1619.13625,867.435,556.1937499999999,15.28,2485.3137500000003,1580.87,2194.43375
19.5,1016.24,71.08124999999995,0.6337499999999636,1619.76125,867.935,556.3187499999999,15.405,2486.4387500000003,1583.745,2195.43375
19.6,1025.49,72.20624999999995,0.7587499999999636,1620.51125,868.31,556.4437499999999,15.405,2487.4387500000003,1586.37,2196.43375
19.7,1034.615,73.33124999999995,0.7587499999999636,1621.01125,868.435,556.4437499999999,15.405,2488.3137500000003,1588.87,2197.30875
19.8,1043.615,74.58124999999995,0.8837499999999636,1621.51125,868.56,556.4437499999999,15.655,2489.0637500000003,1591.37,2198.18375
19.9,1052.24,75.58124999999995,0.8837499999999636,1621.76125,868.56,556.3187499999999,15.655,2489.8137500000003,1593.745,2198.93375
20.0,1060.74,76.83124999999995,0.8837499999999636,1622.01125,868.31,556.0687499999999,15.905,2490.5637500000003,1595.87,2199.68375
20.1,1068.99,77.95624999999995,0.8837499999999636,1622.13625,868.06,555.8187499999999,16.03,2491.0637500000003,1597.995,2200.18375
20.2,1076.99,78.95624999999995,0.8837499999999636,1622.26125,867.685,555.5687499999999,15.905,2491.6887500000003,1599.995,2200.68375
20.3,1084.865,80.08124999999995,1.0087499999999636,1622.26125,867.06,555.1937499999999,15.905,2492.1887500000003,1601.87,2201.18375
20.4,1092.365,81.20624999999995,1.0087499999999636,1622.26125,866.435,554.8187499999999,16.03,2492.5637500000003,1603.62,2201.55875
20.5,1099.865,82.33124999999995,1.1337499999999636,1622.13625,865.685,554.3187499999999,16.03,2492.9387500000003,1605.37,2201.93375
20.6,1107.115,83.45624999999995,1.1337499999999636,1622.01125,864.685,553.8187499999999,16.405,2493.1887500000003,1606.995,2202.18375
20.7,1113.99,84.58124999999995,1.1337499999999636,1621.63625,863.685,553.1937499999999,16.28,2493.4387500000003,1608.62,2202.43375
20.8,1120.99,85.70624999999995,1.2587499999999636,1621.38625,862.56,552.4437499999999,16.28,2493.5637500000003,1609.995,2202.68375
20.9,1127.615,86.70624999999995,1.2587499999999636,1621.01125,861.31,551.6937499999999,16.28,2493.8137500000003,1611.495,2202.68375
21.0,1133.99,87.95624999999995,1.2587499999999636,1620.51125,860.06,550.9437499999999,16.405,2493.9387500000003,1612.745,2202.80875
21.1,1140.24,89.08124999999995,1.3837499999999636,1620.01125,858.685,550.0687499999999,16.53,2493.9387500000003,1613.995,2202.93375
21.2,1146.365,90.08124999999995,1.3837499999999636,1619.51125,857.185,549.1937499999999,16.53,2493.9387500000003,1615.12,2202.93375
21.3,1152.24,91.08124999999995,1.3837499999999636,1618.88625,855.685,548.3187499999999,16.655,2493.9387500000003,1616.245,2202.80875
21.4,1157.99,92.20624999999995,1.3837499999999636,1618.13625,854.06,547.1937499999999,16.905,2493.8137500000003,1617.245,2202.68375
21.5,1163.615,93.20624999999995,1.5087499999999636,1617.38625,852.435,546.1937499999999,17.03,2493.6887500000003,1617.995,2202.43375
21.6,1168.99,94.33124999999995,1.5087499999999636,1616.51125,850.685,545.0687499999999,16.78,2493.4387500000003,1618.995,2202.05875
21.7,1174.24,95.33124999999995,1.5087499999999636,1615.63625,848.935,543.9437499999999,16.905,2493.1887500000003,1619.745,2201.80875
21.8,1179.24,96.45624999999995,1.5087499999999636,1614.76125,846.935,542.8187499999999,17.03,2492.9387500000003,1620.37,2201.43375
21.9,1184.115,97.58124999999995,1.6337499999999636,1613.76125,845.06,541.5687499999999,17.03,2492.6887500000003,1621.12,2201.05875
22.0,1188.865,98.58124999999995,1.6337499999999636,1612.63625,843.06,540.3187499999999,17.03,2492.3137500000003,1621.62,2200.68375
22.1,1193.49,99.58124999999995,1.6337499999999636,1611.63625,840.81,539.0687499999999,17.03,2491.9387500000003,1622.245,2200.18375
22.2,1197.99,100.58124999999995,1.6337499999999636,1610.51125,838.685,537.8187499999999,17.155,2491.5637500000003,1622.745,2199.55875
22.3,1202.24,101.58124999999995,1.6337499999999636,1609.38625,836.435,536.4437499999999,17.28,2491.1887500000003,1623.245,2199.05875
22.4,1206.365,102.58124999999995,1.7587499999999636,1608.13625,834.06,535.0687499999999,17.405,2490.6887500000003,1623.495,2198.30875
22.5,1210.365,103.58124999999995,1.7587499999999636,1606.76125,831.81,533.6937499999999,17.03,2490.3137500000003,1623.87,2197.55875
22.6,1214.24,104.58124999999995,1.7587499999999636,1605.63625,829.185,532.3187499999999,17.405,2489.6887500000003,1624.245,2196.93375
22.7,1217.99,105.58124999999995,1.883749999999964,1604.26125,826.81,530.8187499999999,17.28,2489.1887500000003,1624.37,2196.18375
22.8,1221.615,106.58124999999995,1.883749999999964,1602.88625,824.185,529.4437499999999,17.405,2488.5637500000003,1624.62,2195.30875
22.9,1225.115,107.58124999999995,1.883749999999964,1601.38625,821.56,527.9437499999999,17.28,2488.0637500000003,1624.745,2194.55875
23.0,1228.365,108.45624999999995,1.883749999999964,1600.01125,818.81,526.3187499999999,17.405,2487.3137500000003,1624.995,2193.68375
23.1,1231.615,109.45624999999995,1.883749999999964,1598.51125,816.06,524.8187499999999,17.53,2486.6887500000003,1624.995,2192.93375
23.2,1234.74,110.45624999999995,1.883749999999964,1596.88625,813.185,523.1937499999999,17.53,2485.9387500000003,1625.12,2191.93375
23.3,1237.615,111.33124999999995,2.008749999999964,1595.38625,810.31,521.6937499999999,17.78,2485.3137500000003,1625.12,2191.05875
23.4,1240.615,112.20624999999995,2.008749999999964,1593.76125,807.435,520.1937499999999,17.53,2484.5637500000003,1624.995,2190.05875
23.5,1243.365,113.20624999999995,2.008749999999964,1592.13625,804.31,518.5687499999999,17.655,2483.8137500000003,1624.995,2189.05875
