time(s),F1,F2,F3,F4,F5,F6,F7,F8,F9,F10
10.0,1.631249999999909,1.1275000000000546,-0.03125,-6.507499999999936,-6.2974999999999,-7.692500000000109,-0.3962500000000091,-1.8037500000000364,-2.277500000000145,-9.981250000000044
10.1,1.506249999999909,1.1275000000000546,-0.03125,-6.757499999999936,-6.5474999999999,-8.44250000000011,-0.6462500000000091,-1.9287500000000364,-2.902500000000145,-10.731250000000044
10.2,1.131249999999909,0.8775000000000546,-0.15625,-7.132499999999936,-6.7974999999999,-9.31750000000011,-0.7712500000000091,-2.0537500000000364,-3.7775000000001455,-11.731250000000044
10.3,0.881249999999909,0.7525000000000546,-0.15625,-7.382499999999936,-7.1724999999999,-10.44250000000011,-0.7712500000000091,-2.1787500000000364,-5.0275000000001455,-13.106250000000044
10.4,0.506249999999909,0.5025000000000546,-0.28125,-7.757499999999936,-7.4224999999999,-11.56750000000011,-1.021250000000009,-2.4287500000000364,-6.2775000000001455,-14.481250000000044
10.5,0.506249999999909,0.5025000000000546,-0.28125,-8.007499999999936,-7.6724999999999,-12.56750000000011,-1.146250000000009,-2.5537500000000364,-7.2775000000001455,-15.106250000000044
10.6,0.506249999999909,0.3775000000000545,-0.28125,-8.257499999999936,-7.9224999999999,-13.69250000000011,-1.271250000000009,-2.8037500000000364,-7.7775000000001455,-14.231250000000044
10.7,0.381249999999909,0.3775000000000545,-0.40625,-8.507499999999936,-7.9224999999999,-14.56750000000011,-1.521250000000009,-2.8037500000000364,-8.402500000000146,-11.731250000000044
10.8,0.756249999999909,0.3775000000000545,-0.28125,-8.632499999999936,-7.6724999999999,-15.44250000000011,-1.771250000000009,-2.8037500000000364,-8.527500000000146,-6.3562500000000455
10.9,1.256249999999909,0.3775000000000545,-0.28125,-8.382499999999936,-6.5474999999999,-15.81750000000011,-1.771250000000009,-2.5537500000000364,-8.277500000000146,3.0187499999999545
11.0,2.131249999999909,0.3775000000000545,-0.28125,-7.382499999999936,-4.1724999999999,-15.56750000000011,-1.896250000000009,-1.3037500000000364,-7.0275000000001455,17.518749999999955
11.1,3.506249999999909,0.3775000000000545,-0.28125,-5.257499999999936,-0.6724999999999,-14.19250000000011,-1.646250000000009,1.1962499999999636,-4.2775000000001455,38.89374999999996
11.2,5.381249999999909,0.5025000000000546,-0.15625,-1.1324999999999363,4.0775000000001,-11.56750000000011,-1.896250000000009,5.821249999999964,1.0974999999998545,69.39374999999995
11.3,8.131249999999909,0.6275000000000546,-0.15625,5.492500000000064,10.0775000000001,-7.442500000000109,-1.896250000000009,13.571249999999964,10.347499999999854,110.26874999999995
11.4,11.256249999999907,0.7525000000000546,-0.15625,14.867500000000064,17.3275000000001,-1.9425000000001087,-1.771250000000009,25.321249999999964,24.47249999999985,162.64374999999995
11.5,15.506249999999907,1.0025000000000546,-0.15625,28.117500000000064,26.0775000000001,5.432499999999891,-1.771250000000009,42.82124999999997,44.472499999999854,227.89374999999995
11.6,20.38124999999991,1.2525000000000546,-0.15625,45.367500000000064,36.3275000000001,14.43249999999989,-1.646250000000009,67.19624999999996,70.47249999999985,304.26874999999995
11.7,26.00624999999991,1.6275000000000546,-0.15625,67.49250000000006,48.2025000000001,25.05749999999989,-1.271250000000009,99.94624999999996,102.84749999999984,394.26875
11.8,32.63124999999991,2.0025000000000546,-0.15625,94.99250000000006,61.5775000000001,36.68249999999989,-1.146250000000009,141.69624999999996,140.97249999999983,497.89375
11.9,40.00624999999991,2.3775000000000546,-0.15625,127.86750000000006,76.7025000000001,49.55749999999989,-0.7712500000000091,192.69625,183.22249999999983,610.64375
12.0,48.25624999999991,2.8775000000000546,-0.15625,166.49250000000006,93.5775000000001,63.68249999999989,-0.6462500000000091,253.94625,230.34749999999983,728.39375
12.1,57.50624999999991,3.3775000000000546,-0.15625,210.6175000000001,112.0775000000001,78.68249999999989,-0.5212500000000091,325.44625,280.59749999999985,845.64375
12.2,67.63124999999991,3.877500000000055,-0.15625,259.49250000000006,131.8275000000001,94.55749999999988,-0.1462500000000091,406.07125,332.72249999999985,959.14375
12.3,78.63124999999991,4.502500000000055,-0.28125,313.49250000000006,153.0775000000001,111.18249999999988,-0.021250000000009,496.82125,387.2224999999999,1069.76875
12.4,90.50624999999992,5.127500000000055,-0.28125,371.61750000000006,175.5775000000001,128.5574999999999,0.3537499999999909,596.07125,442.4724999999999,1174.01875
12.5,103.13124999999992,5.877500000000055,-0.15625,432.61750000000006,198.9525000000001,146.5574999999999,0.6037499999999909,701.32125,497.9724999999999,1269.39375
12.6,116.75624999999992,6.752500000000055,-0.15625,496.74250000000006,223.8275000000001,165.0574999999999,0.9787499999999908,813.44625,554.2224999999999,1357.51875
12.7,131.1312499999999,7.627500000000055,-0.15625,562.6175000000001,249.7025000000001,184.0574999999999,1.228749999999991,929.07125,610.4724999999999,1437.39375
12.8,146.0062499999999,8.502500000000055,-0.15625,628.3675000000001,276.3275000000001,203.1824999999999,1.228749999999991,1045.07125,665.4724999999999,1509.01875
12.9,161.7562499999999,9.377500000000056,-0.15625,694.4925000000001,304.3275000000001,222.6824999999999,1.603749999999991,1161.32125,719.8474999999999,1574.14375
13.0,178.1312499999999,10.252500000000056,-0.15625,759.3675000000001,333.2025000000001,242.3074999999999,1.978749999999991,1274.44625,772.8474999999999,1632.89375
13.1,195.0062499999999,11.377500000000056,-0.15625,821.7425000000001,362.4525000000001,261.9324999999999,2.228749999999991,1381.94625,823.5974999999999,1685.14375
13.2,212.6312499999999,12.377500000000056,-0.15625,881.9925000000001,392.7025000000001,281.4324999999999,2.603749999999991,1484.69625,872.7224999999999,1732.39375
13.3,230.8812499999999,13.502500000000056,-0.03125,939.2425,423.0775000000001,300.9324999999999,2.728749999999991,1580.19625,919.7225,1774.89375
13.4,249.3812499999999,14.627500000000056,-0.03125,992.7425,453.3275000000001,319.9324999999999,2.853749999999991,1666.82125,963.9725,1812.51875
13.5,268.6312499999999,15.752500000000056,-0.03125,1043.3675,483.7025000000001,338.9324999999999,3.228749999999991,1746.44625,1006.4725,1846.89375
13.6,288.2562499999999,16.877500000000055,-0.03125,1090.6175,513.7025000000001,357.6824999999999,3.353749999999991,1817.94625,1046.7225,1878.14375
13.7,308.1312499999999,18.002500000000055,-0.03125,1133.9925,543.0775000000001,375.8074999999999,3.603749999999991,1881.44625,1084.5975,1906.14375
13.8,328.6312499999999,19.25250000000005,-0.03125,1174.7425,572.2025000000001,393.5574999999999,3.978749999999991,1938.44625,1120.8475,1932.01875
13.9,349.2562499999999,20.50250000000005,0.09375,1212.2425,600.8275000000001,410.6824999999999,4.228749999999991,1989.19625,1155.0975,1955.89375
14.0,370.1312499999999,21.87750000000005,0.09375,1246.3675,628.3275000000001,427.1824999999999,4.353749999999991,2033.94625,1187.2225,1977.51875
14.1,391.3812499999999,23.00250000000005,0.09375,1278.1175,655.5775000000001,443.1824999999999,4.603749999999991,2073.94625,1217.5975,1997.51875
14.2,412.8812499999999,24.37750000000005,0.21875,1307.2425,681.9525000000001,458.5574999999999,4.853749999999991,2109.44625,1246.4725,2016.01875
14.3,434.2562499999999,25.62750000000005,0.21875,1333.8675,707.3275000000001,473.3074999999999,4.853749999999991,2140.69625,1273.3475,2032.76875
14.4,456.0062499999999,27.00250000000005,0.21875,1358.4925,731.9525000000001,487.5574999999999,5.353749999999991,2168.94625,1298.7225,2048.26875
14.5,478.0062499999999,28.50250000000005,0.21875,1380.9925,755.8275000000001,501.3074999999999,5.478749999999991,2194.07125,1322.5975,2062.51875
14.6,499.7562499999999,29.87750000000005,0.34375,1401.6175,778.4525000000001,514.1824999999999,5.603749999999991,2216.44625,1344.8475,2075.64375
14.7,521.7562499999999,31.37750000000005,0.34375,1420.7425,800.3275000000001,526.6824999999999,5.978749999999991,2236.69625,1365.9725,2087.64375
14.8,543.6312499999999,32.752500000000055,0.34375,1438.2425,821.0775000000001,538.3074999999999,6.103749999999991,2254.69625,1385.4725,2098.51875
14.9,565.6312499999999,34.252500000000055,0.34375,1454.4925,841.2025000000001,549.6824999999999,6.478749999999991,2270.94625,1404.0975,2108.76875
15.0,587.6312499999999,35.752500000000055,0.46875,1469.6175,860.3275000000001,560.3074999999999,6.603749999999991,2285.69625,1421.5975,2118.01875
15.1,609.2562499999999,37.252500000000055,0.46875,1483.3675,878.3275000000001,570.3074999999999,6.728749999999991,2298.82125,1437.8475,2126.64375
15.2,631.1312499999999,38.877500000000055,0.46875,1496.2425,895.7025000000001,579.9324999999999,6.853749999999991,2310.82125,1453.3475,2134.76875
15.3,652.6312499999999,40.377500000000055,0.46875,1508.2425,912.2025,589.0574999999999,7.228749999999991,2321.82125,1467.7225,2142.26875
15.4,674.0062499999999,41.877500000000055,0.46875,1519.2425,927.8275,597.5574999999999,7.228749999999991,2331.69625,1481.2225,2149.26875
15.5,695.2562499999999,43.502500000000055,0.59375,1529.6175,942.5775,605.6824999999999,7.603749999999991,2340.69625,1494.0975,2155.64375
15.6,716.3812499999999,45.002500000000055,0.59375,1539.2425,956.8275,613.4324999999999,7.603749999999991,2348.94625,1506.0975,2161.51875
15.7,737.0062499999999,46.752500000000055,0.71875,1548.1175,969.8275,620.6824999999999,7.728749999999991,2356.32125,1517.3475,2167.01875
15.8,757.6312499999999,48.377500000000055,0.71875,1556.4925,982.4525,627.4324999999999,8.103749999999991,2363.32125,1528.0975,2172.14375
15.9,777.8812499999999,50.127500000000055,0.71875,1564.3675,994.2025,633.9324999999999,8.103749999999991,2369.69625,1538.0975,2177.14375
16.0,797.7562499999999,51.627500000000055,0.84375,1571.4925,1005.3275,639.9324999999999,8.228749999999991,2375.44625,1547.5975,2181.51875
16.1,817.5062499999999,53.377500000000055,0.84375,1578.2425,1015.8275,645.6824999999999,8.603749999999991,2380.69625,1556.4725,2185.76875
16.2,836.8812499999999,55.002500000000055,0.96875,1584.6175,1025.7025,651.0574999999999,8.603749999999991,2385.57125,1564.8475,2189.76875
16.3,855.8812499999999,56.752500000000055,0.96875,1590.4925,1034.8275,656.0574999999999,8.853749999999991,2389.94625,1572.7225,2193.51875
16.4,874.5062499999999,58.377500000000055,0.96875,1595.9925,1043.5775,660.8074999999999,9.103749999999993,2394.07125,1580.2225,2197.14375
16.5,893.0062499999999,60.127500000000055,1.09375,1601.2425,1051.7025,665.1824999999999,8.978749999999991,2397.94625,1587.3475,2200.39375
16.6,910.88125,61.752500000000055,1.09375,1605.9925,1059.3275,669.3074999999999,9.353749999999993,2401.44625,1593.9725,2203.51875
16.7,928.50625,63.502500000000055,1.09375,1610.4925,1066.3275,673.1824999999999,9.478749999999993,2404.57125,1600.2225,2206.26875
16.8,945.75625,65.37750000000005,1.09375,1614.7425,1073.0775,676.8074999999999,9.728749999999993,2407.57125,1606.2225,2209.01875
16.9,962.50625,67.00250000000005,1.21875,1618.6175,1079.2025,680.1824999999999,9.853749999999993,2410.32125,1611.8475,2211.51875
17.0,979.00625,68.87750000000005,1.21875,1622.3675,1084.9525,683.3074999999999,9.978749999999993,2412.82125,1617.0975,2213.89375
17.1,995.13125,70.50250000000005,1.34375,1625.7425,1090.4525,686.3074999999999,10.353749999999993,2415.19625,1622.0975,2216.14375
17.2,1010.75625,72.37750000000005,1.34375,1628.9925,1095.3275,688.9324999999999,10.353749999999993,2417.32125,1626.8475,2218.14375
17.3,1026.13125,74.00250000000005,1.34375,1631.9925,1099.9525,691.5574999999999,10.478749999999993,2419.32125,1631.3475,2220.01875
17.4,1041.00625,75.87750000000005,1.34375,1634.8675,1104.3275,693.8074999999999,10.603749999999993,2421.19625,1635.5975,2221.76875
17.5,1055.38125,77.62750000000005,1.46875,1637.4925,1108.3275,695.9324999999999,10.728749999999993,2422.82125,1639.4725,2223.39375
17.6,1069.63125,79.37750000000005,1.46875,1639.8675,1111.9525,697.9324999999999,10.853749999999993,2424.32125,1643.3475,2224.76875
17.7,1083.38125,81.12750000000005,1.59375,1642.1175,1115.3275,699.6824999999999,10.978749999999993,2425.82125,1646.8475,2226.26875
17.8,1096.63125,82.87750000000005,1.59375,1644.1175,1118.3275,701.1824999999999,11.103749999999993,2427.19625,1650.2225,2227.51875
17.9,1109.63125,84.87750000000005,1.59375,1646.1175,1121.0775,702.8074999999999,11.228749999999993,2428.32125,1653.4725,2228.76875
18.0,1122.25625,86.62750000000005,1.71875,1647.8675,1123.7025,704.0574999999999,11.478749999999993,2429.44625,1656.4725,2230.01875
18.1,1134.50625,88.50250000000005,1.71875,1649.4925,1126.0775,705.1824999999999,11.728749999999993,2430.44625,1659.3475,2230.89375
18.2,1146.38125,90.37750000000004,1.84375,1650.8675,1128.0775,706.1824999999999,11.853749999999993,2431.44625,1662.0975,2231.89375
18.3,1157.88125,92.12750000000004,1.84375,1652.3675,1129.8275,707.1824999999999,11.853749999999993,2432.32125,1664.5975,2232.76875
18.4,1169.00625,93.87750000000004,1.96875,1653.6175,1131.3275,707.8074999999999,11.978749999999993,2433.07125,1666.9725,2233.64375
18.5,1179.88125,95.87750000000004,1.96875,1654.7425,1132.7025,708.5574999999999,12.103749999999993,2433.82125,1669.2225,2234.26875
18.6,1190.25625,97.62750000000004,1.96875,1655.6175,1133.7025,709.0574999999999,12.228749999999993,2434.44625,1671.4725,2235.01875
18.7,1200.38125,99.37750000000004,2.09375,1656.4925,1134.5775,709.5574999999999,12.353749999999993,2435.07125,1673.4725,2235.64375
18.8,1210.13125,101.25250000000004,2.09375,1657.3675,1135.3275,709.9324999999999,12.603749999999993,2435.57125,1675.3475,2236.14375
18.9,1219.50625,103.12750000000004,2.09375,1657.9925,1135.8275,710.1824999999999,12.353749999999993,2436.07125,1677.2225,2236.64375
19.0,1228.63125,105.00250000000004,2.21875,1658.7425,1136.2025,710.3074999999999,12.978749999999993,2436.44625,1678.9725,2237.14375
19.1,1237.38125,106.75250000000004,2.21875,1659.2425,1136.4525,710.4324999999999,12.853749999999993,2436.82125,1680.4725,2237.51875
19.2,1245.75625,108.75250000000004,2.34375,1659.7425,1136.5775,710.4324999999999,12.853749999999993,2437.07125,1682.0975,2237.89375
19.3,1254.00625,110.62750000000004,2.34375,1659.9925,1136.5775,710.3074999999999,12.853749999999993,2437.32125,1683.4725,2238.14375
19.4,1262.00625,112.37750000000004,2.46875,1660.3675,1136.4525,710.1824999999999,13.103749999999993,2437.57125,1684.8475,2238.39375
19.5,1269.50625,114.12750000000004,2.46875,1660.4925,1136.0775,709.9324999999999,13.103749999999993,2437.69625,1686.0975,2238.51875
19.6,1276.75625,115.87750000000004,2.46875,1660.7425,1135.7025,709.5574999999999,13.228749999999993,2437.82125,1687.0975,2238.76875
19.7,1283.88125,117.87750000000004,2.59375,1660.8675,1135.0775,709.0574999999999,13.353749999999993,2437.94625,1688.3475,2238.89375
19.8,1290.63125,119.62750000000004,2.59375,1660.7425,1134.3275,708.5574999999999,13.478749999999993,2437.94625,1689.3475,2238.89375
19.9,1297.13125,121.50250000000004,2.71875,1660.7425,1133.4525,707.8074999999999,13.603749999999993,2437.94625,1690.2225,2238.89375
20.0,1303.38125,123.25250000000004,2.71875,1660.6175,1132.5775,707.1824999999999,13.603749999999993,2438.07125,1691.0975,2238.89375
20.1,1309.38125,125.12750000000004,2.84375,1660.4925,1131.4525,706.4324999999999,13.603749999999993,2437.82125,1691.8475,2238.76875
20.2,1315.13125,126.87750000000004,2.84375,1660.2425,1130.3275,705.6824999999999,13.603749999999993,2437.82125,1692.5975,2238.76875
20.3,1320.75625,128.75250000000003,2.96875,1659.8675,1128.9525,704.8074999999999,13.853749999999993,2437.69625,1693.2225,2238.51875
20.4,1326.00625,130.37750000000003,2.96875,1659.6175,1127.7025,703.9324999999999,13.978749999999993,2437.57125,1693.8475,2238.39375
20.5,1331.00625,132.12750000000003,2.96875,1659.1175,1126.2025,703.0574999999999,14.103749999999993,2437.32125,1694.4725,2238.14375
20.6,1335.88125,134.00250000000003,3.09375,1658.8675,1124.7025,702.0574999999999,14.103749999999993,2437.19625,1694.9725,2237.89375
20.7,1340.50625,135.75250000000003,3.09375,1658.2425,1123.0775,700.9324999999999,13.853749999999993,2436.94625,1695.4725,2237.64375
20.8,1345.00625,137.50250000000003,3.09375,1657.7425,1121.3275,699.8074999999999,14.103749999999993,2436.69625,1695.8475,2237.39375
20.9,1349.38125,139.37750000000003,3.21875,1657.1175,1119.5775,698.5574999999999,14.228749999999993,2436.44625,1696.2225,2237.14375
21.0,1353.38125,141.12750000000003,3.21875,1656.4925,1117.7025,697.3074999999999,14.353749999999993,2436.07125,1696.4725,2236.76875
21.1,1357.25625,142.87750000000003,3.34375,1655.7425,1115.7025,696.0574999999999,14.353749999999993,2435.82125,1696.8475,2236.26875
21.2,1361.00625,144.62750000000003,3.34375,1655.1175,1113.5775,694.8074999999999,14.353749999999993,2435.44625,1696.9725,2235.89375
21.3,1364.50625,146.37750000000003,3.34375,1654.3675,1111.3275,693.4324999999999,14.478749999999993,2435.07125,1697.2225,2235.39375
21.4,1368.00625,148.00250000000003,3.34375,1653.6175,1109.0775,692.0574999999999,14.603749999999993,2434.82125,1697.3475,2234.89375
21.5,1371.13125,149.75250000000003,3.46875,1652.7425,1106.7025,690.6824999999999,14.728749999999993,2434.32125,1697.4725,2234.39375
21.6,1374.25625,151.50250000000003,3.46875,1651.9925,1104.2025,689.0574999999999,14.728749999999993,2433.94625,1697.5975,2233.89375
21.7,1377.13125,153.12750000000003,3.46875,1650.9925,1101.7025,687.5574999999999,14.978749999999993,2433.44625,1697.5975,2233.39375
21.8,1380.00625,154.75250000000003,3.59375,1650.1175,1099.0775,686.0574999999999,14.853749999999993,2432.94625,1697.5975,2232.89375
21.9,1382.63125,156.50250000000003,3.59375,1649.2425,1096.5775,684.5574999999999,14.978749999999993,2432.57125,1697.5975,2232.26875
22.0,1385.13125,158.12750000000003,3.59375,1648.2425,1093.8275,682.9324999999999,14.978749999999993,2432.07125,1697.4725,2231.64375
22.1,1387.50625,159.75250000000003,3.71875,1647.1175,1091.2025,681.3074999999999,14.853749999999993,2431.57125,1697.4725,2231.01875
22.2,1389.75625,161.50250000000003,3.71875,1646.1175,1088.3275,679.5574999999999,14.978749999999993,2431.07125,1697.3475,2230.39375
22.3,1391.88125,163.12750000000003,3.71875,1644.9925,1085.4525,677.8074999999999,14.978749999999993,2430.44625,1697.0975,2229.76875
22.4,1393.88125,164.62750000000003,3.84375,1643.9925,1082.5775,676.0574999999999,15.103749999999993,2429.94625,1696.8475,2229.01875
22.5,1395.75625,166.25250000000003,3.84375,1642.8675,1079.5775,674.3074999999999,15.228749999999993,2429.32125,1696.7225,2228.39375
22.6,1397.63125,167.87750000000003,3.84375,1641.6175,1076.5775,672.4324999999999,15.228749999999993,2428.69625,1696.4725,2227.64375
22.7,1399.25625,169.37750000000003,3.84375,1640.3675,1073.4525,670.5574999999999,15.228749999999993,2428.07125,1696.2225,2226.89375
22.8,1400.88125,170.87750000000003,3.84375,1639.2425,1070.4525,668.5574999999999,15.228749999999993,2427.57125,1695.9725,2226.14375
22.9,1402.38125,172.50250000000003,3.96875,1637.9925,1067.2025,666.6824999999999,15.353749999999993,2426.94625,1695.5975,2225.39375
23.0,1403.63125,174.12750000000003,3.96875,1636.7425,1063.9525,664.8074999999999,15.353749999999993,2426.19625,1695.3475,2224.64375
23.1,1405.00625,175.62750000000003,3.96875,1635.4925,1060.7025,662.6824999999999,15.478749999999993,2425.57125,1694.9725,2223.76875
23.2,1406.25625,177.12750000000003,4.09375,1634.1175,1057.3275,660.6824999999999,15.603749999999993,2424.94625,1694.5975,2222.89375
23.3,1407.25625,178.62750000000003,4.09375,1632.7425,1053.9525,658.8074999999999,15.478749999999993,2424.32125,1694.0975,2222.01875
23.4,1408.38125,180.12750000000003,4.09375,1631.3675,1050.5775,656.6824999999999,15.603749999999993,2423.57125,1693.7225,2221.26875
23.5,1409.25625,181.62750000000003,4.21875,1629.8675,1047.2025,654.6824999999999,15.603749999999993,2422.82125,1693.2225,2220.39375
23.6,1410.00625,183.12750000000003,4.09375,1628.4925,1043.8275,652.5574999999999,15.728749999999993,2422.19625,1692.8475,2219.51875
23.7,1410.88125,184.50250000000003,4.09375,1626.9925,1040.5775,650.5574999999999,15.728749999999993,2421.44625,1692.3475,2218.51875
