time(s),F1,F2,F3,F4,F5,F6,F7,F8,F9,F10
10.0,2.3912499999999,0.5687500000000227,0.3662500000000364,7.654999999999973,-0.7362499999999272,-0.7775000000001455,-0.0375000000000227,7.25,3.9974999999999454,2.426249999999982
10.1,2.5162499999999,0.5687500000000227,0.4912500000000364,7.654999999999973,-0.7362499999999272,-1.6525000000001455,-0.0375000000000227,7.375,3.9974999999999454,2.301249999999982
10.2,2.3912499999999,0.4437500000000227,0.3662500000000364,7.654999999999973,-0.8612499999999272,-2.902500000000145,-0.0375000000000227,7.375,3.9974999999999454,2.301249999999982
10.3,2.2662499999999,0.4437500000000227,0.4912500000000364,7.779999999999973,-0.9862499999999272,-4.1525000000001455,-0.4125000000000227,7.375,3.9974999999999454,2.301249999999982
10.4,2.3912499999999,0.4437500000000227,0.4912500000000364,7.779999999999973,-0.9862499999999272,-5.2775000000001455,-0.7875000000000227,7.375,3.9974999999999454,2.426249999999982
10.5,2.2662499999999,0.4437500000000227,0.3662500000000364,7.904999999999973,-1.1112499999999272,-6.6525000000001455,-1.0375000000000227,7.5,3.8724999999999454,3.176249999999982
10.6,2.3912499999999,0.4437500000000227,0.4912500000000364,7.904999999999973,-1.1112499999999272,-7.7775000000001455,-1.2875000000000227,7.5,3.8724999999999454,5.551249999999982
10.7,2.5162499999999,0.3187500000000227,0.4912500000000364,7.904999999999973,-0.8612499999999272,-8.777500000000146,-1.6625000000000227,7.625,3.9974999999999454,11.051249999999982
10.8,2.8912499999999,0.3187500000000227,0.4912500000000364,8.279999999999973,-0.1112499999999272,-9.527500000000146,-1.6625000000000227,7.875,4.372499999999945,20.801249999999985
10.9,3.5162499999999,0.3187500000000227,0.4912500000000364,9.029999999999973,1.3887500000000728,-9.527500000000146,-1.7875000000000227,8.5,5.622499999999945,35.67624999999998
11.0,4.5162499999999,0.3187500000000227,0.4912500000000364,10.779999999999973,4.013750000000073,-8.652500000000146,-1.7875000000000227,10.25,8.247499999999945,56.67624999999998
11.1,6.3912499999999,0.4437500000000227,0.4912500000000364,14.279999999999973,7.763750000000073,-6.4025000000001455,-1.7875000000000227,14.125,13.122499999999944,86.80124999999998
11.2,8.6412499999999,0.4437500000000227,0.4912500000000364,20.529999999999973,13.388750000000073,-2.902500000000145,-1.7875000000000227,21.75,21.497499999999945,127.67624999999998
11.3,11.8912499999999,0.6937500000000227,0.4912500000000364,30.029999999999973,20.888750000000076,2.0974999999998545,-2.0375000000000227,34.375,34.622499999999945,179.92624999999998
11.4,15.8912499999999,0.8187500000000227,0.4912500000000364,44.02999999999997,30.763750000000076,8.597499999999854,-1.9125000000000227,53.625,53.747499999999945,246.30125
11.5,21.0162499999999,1.1937500000000227,0.4912500000000364,63.40499999999997,42.51375000000007,16.972499999999854,-1.7875000000000227,81.25,79.62249999999995,327.42625
11.6,26.8912499999999,1.5687500000000227,0.4912500000000364,88.15499999999997,56.01375000000007,26.84749999999985,-1.5375000000000227,117.875,112.24749999999996,422.92625
11.7,33.8912499999999,1.9437500000000227,0.4912500000000364,119.65499999999996,71.38875000000007,38.347499999999854,-1.4125000000000227,165.125,152.24749999999997,535.05125
11.8,42.0162499999999,2.4437500000000227,0.6162500000000364,157.90499999999997,88.63875000000007,51.347499999999854,-1.0375000000000227,223.375,198.99749999999997,658.92625
11.9,50.8912499999999,2.9437500000000227,0.6162500000000364,202.405,107.26375000000009,65.59749999999985,-0.9125000000000228,292.25,251.12249999999997,787.80125
12.0,61.0162499999999,3.5687500000000227,0.6162500000000364,253.905,127.88875000000009,81.47249999999985,-0.5375000000000227,372.875,308.62249999999995,918.42625
12.1,72.0162499999999,4.318750000000023,0.6162500000000364,311.905,150.01375000000007,98.59749999999984,-0.5375000000000227,464.5,369.9975,1045.67625
12.2,84.0162499999999,5.068750000000023,0.6162500000000364,374.655,173.63875000000007,116.47249999999984,-0.1625000000000227,565.125,433.2475,1165.17625
12.3,97.0162499999999,5.818750000000023,0.6162500000000364,442.78,199.13875000000007,135.47249999999983,-0.0375000000000227,675.875,498.6225,1277.42625
12.4,111.0162499999999,6.693750000000023,0.6162500000000364,514.53,226.38875000000007,155.09749999999983,0.3374999999999772,793.625,564.4975,1379.80125
12.5,125.7662499999999,7.568750000000023,0.6162500000000364,587.905,254.76375000000007,174.97249999999983,0.5874999999999773,915.5,629.1225,1471.80125
12.6,141.3912499999999,8.568750000000023,0.6162500000000364,663.03,284.5137500000001,195.59749999999983,0.8374999999999773,1041.5,693.2475,1554.92625
12.7,157.8912499999999,9.443750000000025,0.7412500000000364,738.03,315.0137500000001,216.47249999999983,0.9624999999999772,1167.75,755.4975,1628.05125
12.8,175.0162499999999,10.568750000000025,0.7412500000000364,810.655,346.1387500000001,237.22249999999983,1.4624999999999773,1290.375,814.9975,1691.92625
12.9,193.1412499999999,11.568750000000025,0.7412500000000364,881.53,377.8887500000001,258.34749999999985,1.5874999999999773,1409.625,872.7475,1749.05125
13.0,211.7662499999999,12.818750000000025,0.7412500000000364,949.03,410.0137500000001,279.34749999999985,1.9624999999999773,1522.25,927.8725,1799.55125
13.1,230.8912499999999,13.818750000000025,0.7412500000000364,1012.155,441.7637500000001,299.97249999999985,2.0874999999999773,1625.75,979.7475,1844.17625
13.2,250.7662499999999,15.068750000000025,0.7412500000000364,1071.655,474.1387500000001,320.59749999999985,2.3374999999999773,1721.625,1029.6225,1884.80125
13.3,271.1412499999999,16.193750000000023,0.8662500000000364,1126.905,506.5137500000001,340.97249999999985,2.8374999999999773,1808.25,1076.8725,1921.55125
13.4,291.8912499999999,17.443750000000023,0.8662500000000364,1177.28,538.3887500000001,360.5974999999999,2.8374999999999773,1884.875,1120.7475,1954.17625
13.5,313.2662499999999,18.818750000000023,0.8662500000000364,1223.905,570.1387500000001,379.9724999999999,3.0874999999999773,1953.75,1162.4975,1983.80125
13.6,335.0162499999999,20.068750000000023,0.8662500000000364,1266.655,601.3887500000001,398.8474999999999,3.3374999999999773,2014.5,1201.6225,2010.05125
13.7,357.0162499999999,21.318750000000023,0.8662500000000364,1305.28,631.5137500000001,416.9724999999999,3.3374999999999773,2067.75,1237.9975,2033.30125
13.8,379.3912499999999,22.693750000000023,0.9912500000000364,1340.78,661.1387500000001,434.4724999999999,3.712499999999977,2115.0,1272.3725,2054.67625
13.9,402.1412499999999,24.068750000000023,0.9912500000000364,1373.03,689.8887500000001,451.3474999999999,3.712499999999977,2156.625,1304.4975,2074.17625
14.0,424.7662499999999,25.568750000000023,0.9912500000000364,1402.28,717.2637500000001,467.3474999999999,4.087499999999977,2192.875,1334.3725,2091.92625
14.1,447.8912499999999,26.943750000000023,0.9912500000000364,1429.155,744.1387500000001,482.8474999999999,4.212499999999977,2225.375,1362.4975,2108.05125
14.2,470.8912499999999,28.443750000000023,1.1162500000000364,1453.405,769.6387500000001,497.3474999999999,4.712499999999977,2253.75,1388.4975,2122.80125
14.3,494.1412499999999,29.943750000000023,1.1162500000000364,1475.78,794.3887500000001,511.3474999999999,4.712499999999977,2279.25,1413.1225,2136.30125
14.4,517.5162499999999,31.318750000000023,1.1162500000000364,1496.155,817.8887500000001,524.7224999999999,4.962499999999977,2301.75,1436.1225,2148.67625
14.5,540.6412499999999,32.94375000000002,1.1162500000000364,1514.655,840.0137500000001,537.2224999999999,5.087499999999977,2321.625,1457.3725,2159.80125
14.6,564.0162499999999,34.56875000000002,1.2412500000000364,1531.905,861.5137500000001,549.2224999999999,5.337499999999977,2339.625,1477.4975,2170.17625
14.7,587.3912499999999,36.06875000000002,1.2412500000000364,1547.655,881.7637500000001,560.7224999999999,5.337499999999977,2355.75,1496.2475,2179.67625
14.8,610.2662499999999,37.69375000000002,1.2412500000000364,1561.905,900.88875,571.2224999999999,5.587499999999977,2370.0,1513.6225,2188.30125
14.9,633.2662499999999,39.31875000000002,1.2412500000000364,1575.28,919.01375,581.4724999999999,5.712499999999977,2383.0,1529.9975,2196.30125
15.0,656.2662499999999,40.81875000000002,1.3662500000000364,1587.53,936.13875,591.0974999999999,5.837499999999977,2394.75,1545.3725,2203.67625
15.1,678.7662499999999,42.56875000000002,1.3662500000000364,1598.78,952.13875,599.9724999999999,5.962499999999977,2405.125,1559.4975,2210.67625
15.2,701.2662499999999,44.19375000000002,1.3662500000000364,1609.28,967.51375,608.4724999999999,6.337499999999977,2414.625,1572.8725,2217.17625
15.3,723.5162499999999,45.81875000000002,1.4912500000000364,1619.03,981.88875,616.3474999999999,6.712499999999977,2423.25,1585.4975,2223.17625
15.4,745.3912499999999,47.56875000000002,1.4912500000000364,1627.905,995.26375,623.8474999999999,6.712499999999977,2431.0,1597.1225,2228.67625
15.5,767.0162499999999,49.19375000000002,1.4912500000000364,1636.28,1008.01375,630.9724999999999,6.712499999999977,2438.0,1608.1225,2233.80125
15.6,788.5162499999999,50.94375000000002,1.4912500000000364,1644.03,1019.88875,637.4724999999999,6.962499999999977,2444.5,1618.4975,2238.80125
15.7,809.3912499999999,52.69375000000002,1.6162500000000364,1651.155,1031.01375,643.5974999999999,7.337499999999977,2450.25,1627.9975,2243.17625
15.8,830.2662499999999,54.44375000000002,1.6162500000000364,1657.905,1041.51375,649.4724999999999,7.337499999999977,2455.625,1637.1225,2247.42625
15.9,850.6412499999999,56.31875000000002,1.7412500000000364,1664.03,1051.38875,654.9724999999999,7.587499999999977,2460.625,1645.7475,2251.30125
16.0,870.5162499999999,58.06875000000002,1.7412500000000364,1669.78,1060.51375,659.9724999999999,7.837499999999977,2465.0,1653.7475,2254.92625
16.1,890.1412499999999,59.81875000000002,1.8662500000000364,1675.155,1069.01375,664.7224999999999,7.962499999999977,2469.0,1661.3725,2258.42625
16.2,909.51625,61.69375000000002,1.8662500000000364,1680.155,1077.01375,669.0974999999999,8.337499999999977,2472.75,1668.3725,2261.55125
16.3,928.26625,63.56875000000002,1.8662500000000364,1684.78,1084.38875,673.2224999999999,8.337499999999977,2476.125,1674.9975,2264.30125
16.4,946.76625,65.31875000000002,1.9912500000000364,1689.155,1091.26375,677.0974999999999,8.712499999999977,2479.375,1681.2475,2267.05125
16.5,964.76625,67.06875000000002,1.9912500000000364,1693.155,1097.76375,680.5974999999999,8.462499999999977,2482.25,1687.2475,2269.67625
16.6,982.26625,69.06875000000002,2.1162500000000364,1696.78,1103.51375,683.9724999999999,8.712499999999977,2484.875,1692.7475,2272.05125
16.7,999.51625,70.94375000000002,2.1162500000000364,1700.28,1109.26375,686.9724999999999,8.962499999999977,2487.25,1697.9975,2274.17625
16.8,1016.39125,72.69375000000002,2.1162500000000364,1703.53,1114.26375,689.8474999999999,8.962499999999977,2489.5,1702.9975,2276.30125
16.9,1032.64125,74.56875000000002,2.2412500000000364,1706.53,1118.88875,692.4724999999999,9.337499999999975,2491.5,1707.6225,2278.17625
17.0,1048.64125,76.56875000000002,2.2412500000000364,1709.405,1123.38875,694.8474999999999,9.337499999999975,2493.5,1711.9975,2279.92625
17.1,1064.26625,78.44375000000002,2.2412500000000364,1711.905,1127.26375,696.9724999999999,9.462499999999975,2495.25,1716.1225,2281.55125
17.2,1079.26625,80.31875000000002,2.3662500000000364,1714.28,1131.01375,699.0974999999999,9.337499999999975,2496.875,1719.9975,2283.05125
17.3,1093.89125,82.19375000000002,2.3662500000000364,1716.53,1134.26375,700.9724999999999,9.587499999999975,2498.375,1723.8725,2284.42625
17.4,1108.01625,83.94375000000002,2.3662500000000364,1718.655,1137.26375,702.5974999999999,9.587499999999975,2499.625,1727.2475,2285.80125
17.5,1121.89125,85.94375000000002,2.3662500000000364,1720.53,1140.13875,703.9724999999999,9.837499999999975,2500.875,1730.4975,2287.05125
17.6,1135.39125,87.81875000000002,2.4912500000000364,1722.28,1142.63875,705.4724999999999,9.962499999999975,2502.0,1733.6225,2288.17625
17.7,1148.26625,89.81875000000002,2.4912500000000364,1723.905,1144.76375,706.5974999999999,10.087499999999975,2503.0,1736.4975,2289.17625
17.8,1161.01625,91.69375000000002,2.6162500000000364,1725.28,1146.76375,707.7224999999999,9.962499999999975,2504.0,1739.3725,2290.17625
17.9,1173.26625,93.56875000000002,2.6162500000000364,1726.655,1148.51375,708.7224999999999,10.212499999999975,2505.0,1741.8725,2290.92625
18.0,1185.01625,95.56875000000002,2.6162500000000364,1727.905,1150.01375,709.4724999999999,10.337499999999975,2505.75,1744.2475,2291.80125
18.1,1196.39125,97.44375000000002,2.7412500000000364,1728.905,1151.26375,710.2224999999999,10.337499999999975,2506.375,1746.7475,2292.55125
18.2,1207.51625,99.31875000000002,2.7412500000000364,1730.03,1152.38875,710.7224999999999,10.587499999999975,2507.0,1748.8725,2293.17625
18.3,1218.14125,101.19375000000002,2.8662500000000364,1730.905,1153.26375,711.0974999999999,10.837499999999975,2507.625,1750.8725,2293.80125
18.4,1228.51625,103.19375000000002,2.8662500000000364,1731.655,1153.88875,711.4724999999999,10.712499999999975,2508.125,1752.8725,2294.30125
18.5,1238.51625,105.06875000000002,2.8662500000000364,1732.405,1154.38875,711.5974999999999,10.962499999999975,2508.625,1754.7475,2294.80125
18.6,1248.01625,107.06875000000002,2.8662500000000364,1733.03,1154.76375,711.8474999999999,10.962499999999975,2509.0,1756.4975,2295.30125
18.7,1257.39125,108.94375000000002,2.9912500000000364,1733.53,1155.01375,711.8474999999999,11.087499999999975,2509.375,1758.1225,2295.67625
18.8,1266.26625,110.94375000000002,2.9912500000000364,1733.905,1155.13875,711.8474999999999,11.212499999999975,2509.625,1759.6225,2295.92625
18.9,1274.76625,112.69375000000002,2.9912500000000364,1734.28,1155.01375,711.7224999999999,11.212499999999975,2509.875,1760.9975,2296.17625
19.0,1283.14125,114.69375000000002,3.1162500000000364,1734.655,1154.76375,711.5974999999999,11.587499999999975,2510.125,1762.3725,2296.42625
19.1,1291.14125,116.69375000000002,3.1162500000000364,1734.905,1154.51375,711.2224999999999,11.587499999999975,2510.25,1763.6225,2296.55125
19.2,1298.76625,118.56875000000002,3.1162500000000364,1735.03,1153.88875,710.9724999999999,11.712499999999975,2510.375,1764.8725,2296.80125
19.3,1306.14125,120.44375000000002,3.2412500000000364,1735.155,1153.38875,710.5974999999999,11.962499999999975,2510.5,1765.8725,2296.80125
19.4,1313.26625,122.44375000000002,3.2412500000000364,1735.155,1152.51375,710.0974999999999,11.962499999999975,2510.625,1766.9975,2296.92625
19.5,1320.14125,124.31875000000002,3.2412500000000364,1735.155,1151.76375,709.4724999999999,11.962499999999975,2510.625,1767.8725,2296.92625
19.6,1326.64125,126.19375000000002,3.2412500000000364,1735.03,1150.76375,708.9724999999999,12.212499999999975,2510.625,1768.8725,2296.92625
19.7,1333.01625,128.19375000000002,3.3662500000000364,1734.905,1149.63875,708.2224999999999,11.962499999999975,2510.5,1769.6225,2296.92625
19.8,1339.01625,130.06875000000002,3.3662500000000364,1734.78,1148.51375,707.4724999999999,12.462499999999975,2510.5,1770.4975,2296.80125
19.9,1344.76625,131.81875000000002,3.3662500000000364,1734.53,1147.26375,706.5974999999999,12.212499999999975,2510.375,1771.1225,2296.80125
20.0,1350.39125,133.69375000000002,3.4912500000000364,1734.28,1146.01375,705.7224999999999,12.337499999999975,2510.25,1771.8725,2296.55125
20.1,1355.64125,135.56875000000002,3.4912500000000364,1734.03,1144.63875,704.8474999999999,12.212499999999975,2510.125,1772.4975,2296.55125
20.2,1360.76625,137.44375000000002,3.4912500000000364,1733.655,1143.13875,703.8474999999999,12.337499999999975,2510.0,1772.9975,2296.30125
20.3,1365.64125,139.31875000000002,3.616250000000037,1733.28,1141.51375,702.8474999999999,12.587499999999975,2509.75,1773.4975,2296.17625
20.4,1370.26625,141.19375000000002,3.616250000000037,1732.78,1139.88875,701.7224999999999,12.712499999999975,2509.625,1773.8725,2295.92625
20.5,1374.76625,143.06875000000002,3.616250000000037,1732.155,1138.13875,700.5974999999999,12.587499999999975,2509.375,1774.3725,2295.55125
20.6,1379.01625,144.81875000000002,3.741250000000037,1731.655,1136.38875,699.4724999999999,12.712499999999975,2509.125,1774.7475,2295.30125
20.7,1383.14125,146.56875000000002,3.741250000000037,1731.155,1134.51375,698.2224999999999,12.962499999999975,2508.875,1774.9975,2294.92625
20.8,1387.14125,148.44375000000002,3.741250000000037,1730.405,1132.63875,696.9724999999999,12.962499999999975,2508.5,1775.2475,2294.55125
20.9,1390.76625,150.19375000000002,3.866250000000037,1729.78,1130.76375,695.7224999999999,13.087499999999975,2508.125,1775.4975,2294.17625
21.0,1394.39125,152.06875000000002,3.866250000000037,1729.155,1128.63875,694.3474999999999,13.087499999999975,2507.875,1775.7475,2293.80125
21.1,1397.76625,153.81875000000002,3.866250000000037,1728.405,1126.51375,692.9724999999999,13.212499999999975,2507.5,1775.8725,2293.42625
21.2,1401.01625,155.56875000000002,3.866250000000037,1727.53,1124.38875,691.5974999999999,13.212499999999975,2507.125,1775.9975,2292.92625
21.3,1404.14125,157.31875000000002,3.866250000000037,1726.655,1122.13875,690.0974999999999,13.337499999999975,2506.75,1775.9975,2292.55125
21.4,1407.01625,159.19375000000002,3.991250000000037,1725.905,1119.88875,688.5974999999999,13.462499999999975,2506.375,1776.1225,2291.92625
21.5,1409.76625,160.81875000000002,3.991250000000037,1724.905,1117.51375,687.0974999999999,13.587499999999975,2505.875,1776.2475,2291.55125
21.6,1412.51625,162.69375000000002,3.991250000000037,1724.03,1115.26375,685.4724999999999,13.462499999999975,2505.5,1776.2475,2291.05125
21.7,1415.01625,164.44375000000002,4.116250000000036,1723.155,1112.76375,683.9724999999999,13.587499999999975,2505.0,1776.1225,2290.42625
21.8,1417.39125,166.06875000000002,4.116250000000036,1722.155,1110.38875,682.3474999999999,13.712499999999975,2504.5,1776.1225,2289.92625
21.9,1419.64125,167.81875000000002,4.241250000000036,1721.155,1107.76375,680.7224999999999,13.837499999999975,2504.125,1775.9975,2289.30125
22.0,1421.76625,169.56875000000002,4.241250000000036,1720.03,1105.13875,679.2224999999999,13.962499999999975,2503.625,1775.8725,2288.80125
22.1,1423.76625,171.19375000000002,4.241250000000036,1719.03,1102.51375,677.4724999999999,13.962499999999975,2503.125,1775.7475,2288.17625
22.2,1425.76625,172.94375000000002,4.241250000000036,1717.905,1099.76375,675.8474999999999,14.337499999999975,2502.625,1775.6225,2287.55125
22.3,1427.51625,174.56875000000002,4.366250000000036,1716.78,1097.01375,674.2224999999999,14.212499999999975,2502.125,1775.3725,2286.92625
22.4,1429.14125,176.31875000000002,4.366250000000036,1715.655,1094.13875,672.4724999999999,14.337499999999975,2501.625,1775.2475,2286.30125
22.5,1430.89125,177.94375000000002,4.366250000000036,1714.405,1091.26375,670.7224999999999,14.337499999999975,2501.125,1774.9975,2285.67625
22.6,1432.26625,179.56875000000002,4.491250000000036,1713.28,1088.26375,668.9724999999999,14.587499999999975,2500.375,1774.7475,2285.05125
22.7,1433.76625,181.19375,4.491250000000036,1712.03,1085.26375,667.2224999999999,14.212499999999975,2499.875,1774.4975,2284.42625
22.8,1435.01625,182.81875,4.491250000000036,1710.78,1082.26375,665.3474999999999,14.337499999999975,2499.25,1774.2475,2283.67625
22.9,1436.26625,184.31875,4.491250000000036,1709.53,1079.26375,663.5974999999999,14.587499999999975,2498.625,1773.8725,2283.05125
23.0,1437.39125,186.06875,4.616250000000036,1708.28,1076.13875,661.7224999999999,14.587499999999975,2498.0,1773.6225,2282.30125
23.1,1438.39125,187.56875,4.616250000000036,1706.905,1073.01375,659.8474999999999,14.712499999999975,2497.375,1773.2475,2281.55125
23.2,1439.39125,189.19375,4.616250000000036,1705.53,1070.01375,657.9724999999999,14.712499999999975,2496.75,1772.8725,2280.80125
23.3,1440.26625,190.69375,4.616250000000036,1704.155,1067.01375,656.0974999999999,14.712499999999975,2496.125,1772.4975,2280.05125
23.4,1441.14125,192.31875,4.616250000000036,1702.905,1063.88875,654.2224999999999,14.712499999999975,2495.375,1772.1225,2279.30125
