time(s),F1,F2,F3,F4,F5,F6,F7,F8,F9,F10
10.0,0.1412499999998999,0.1937500000000227,0.0562500000000909,-3.865000000000009,-2.0799999999999272,-1.4962500000001455,-0.1499999999999772,-3.536250000000109,-3.224999999999909,-6.339999999999918
10.1,0.1412499999998999,0.1937500000000227,0.0562500000000909,-3.990000000000009,-2.0799999999999272,-1.6212500000001455,-0.1499999999999772,-3.661250000000109,-3.474999999999909,-6.589999999999918
10.2,0.1412499999998999,0.0687500000000227,0.0562500000000909,-4.115000000000009,-2.2049999999999272,-1.7462500000001455,-0.1499999999999772,-3.786250000000109,-3.599999999999909,-6.714999999999918
10.3,0.0162499999998999,0.0687500000000227,0.0562500000000909,-4.240000000000009,-2.2049999999999272,-1.8712500000001453,-0.1499999999999772,-3.911250000000109,-3.724999999999909,-6.839999999999918
10.4,0.0162499999998999,0.0687500000000227,0.0562500000000909,-4.365000000000009,-2.2049999999999272,-1.9962500000001453,-0.0249999999999772,-3.911250000000109,-3.849999999999909,-6.964999999999918
10.5,0.0162499999998999,0.0687500000000227,0.0562500000000909,-4.490000000000009,-2.3299999999999272,-1.9962500000001453,-0.0249999999999772,-4.036250000000109,-3.849999999999909,-6.589999999999918
10.6,0.0162499999998999,0.0687500000000227,0.0562500000000909,-4.615000000000009,-2.3299999999999272,-2.121250000000145,0.1000000000000227,-4.161250000000109,-3.974999999999909,-5.589999999999918
10.7,0.1412499999998999,0.0687500000000227,0.0562500000000909,-4.740000000000009,-2.0799999999999272,-2.246250000000145,-0.0249999999999772,-4.286250000000109,-4.099999999999909,-2.964999999999918
10.8,0.3912499999998999,0.0687500000000227,0.0562500000000909,-4.740000000000009,-1.4549999999999272,-1.9962500000001453,-0.0249999999999772,-4.286250000000109,-4.099999999999909,2.035000000000082
10.9,0.8912499999999,0.0687500000000227,0.0562500000000909,-4.615000000000009,-0.4549999999999272,-1.6212500000001455,-0.0249999999999772,-4.036250000000109,-3.974999999999909,9.910000000000082
11.0,1.6412499999999,0.0687500000000227,0.0562500000000909,-3.990000000000009,1.6700000000000728,-0.4962500000001455,-0.0249999999999772,-3.161250000000109,-3.224999999999909,21.53500000000008
11.1,2.8912499999999,0.0687500000000227,0.0562500000000909,-2.740000000000009,5.045000000000073,1.6287499999998545,-0.0249999999999772,-0.7862500000001091,-1.349999999999909,37.66000000000008
11.2,4.6412499999999,0.1937500000000227,0.0562500000000909,0.0099999999999909,9.795000000000073,4.503749999999855,0.3500000000000227,3.713749999999891,2.275000000000091,59.16000000000008
11.3,6.8912499999999,0.1937500000000227,0.0562500000000909,4.509999999999991,15.920000000000073,8.628749999999854,0.4750000000000227,11.33874999999989,8.650000000000091,88.66000000000008
11.4,9.7662499999999,0.3187500000000227,0.0562500000000909,11.509999999999993,23.295000000000076,13.878749999999854,0.6000000000000227,23.08874999999989,18.27500000000009,128.28500000000008
11.5,13.2662499999999,0.5687500000000227,0.0562500000000909,21.38499999999999,32.17000000000007,20.25374999999985,0.8500000000000227,39.21374999999989,31.65000000000009,178.03500000000008
11.6,17.5162499999999,0.6937500000000227,0.0562500000000909,34.75999999999999,42.29500000000007,27.62874999999985,1.1000000000000227,60.83874999999989,49.65000000000009,239.41000000000008
11.7,22.5162499999999,0.9437500000000228,0.0562500000000909,51.50999999999999,53.92000000000007,36.128749999999854,1.4750000000000227,88.21374999999989,72.27500000000009,313.5350000000001
11.8,28.1412499999999,1.1937500000000227,0.0562500000000909,72.00999999999999,66.54500000000007,45.628749999999854,1.6000000000000227,121.58874999999988,98.90000000000008,400.0350000000001
11.9,34.5162499999999,1.5687500000000227,0.0562500000000909,96.51,80.42000000000007,56.003749999999854,1.8500000000000227,162.3387499999999,129.7750000000001,498.5350000000001
12.0,41.5162499999999,1.9437500000000227,0.0562500000000909,125.26,95.42000000000009,67.25374999999985,2.2250000000000227,210.4637499999999,164.1500000000001,603.9100000000001
12.1,49.1412499999999,2.4437500000000227,0.0562500000000909,157.635,111.17000000000009,79.00374999999985,2.4750000000000227,265.7137499999999,201.5250000000001,711.6600000000001
12.2,57.5162499999999,2.9437500000000227,0.1812500000000909,194.635,128.29500000000007,91.62874999999984,2.7250000000000227,328.7137499999999,242.4000000000001,822.1600000000001
12.3,66.6412499999999,3.3187500000000227,0.1812500000000909,235.51,146.79500000000007,104.87874999999984,3.3500000000000227,398.9637499999999,286.0250000000001,931.785
12.4,76.2662499999999,3.943750000000023,0.1812500000000909,279.885,166.04500000000007,118.50374999999984,3.4750000000000227,475.4637499999999,331.4000000000001,1036.16
12.5,86.6412499999999,4.568750000000023,0.1812500000000909,328.135,186.54500000000007,132.87874999999983,3.850000000000023,559.0887499999999,378.9000000000001,1135.66
12.6,97.6412499999999,5.193750000000023,0.1812500000000909,379.635,208.04500000000007,147.62874999999983,4.225000000000023,648.3387499999999,427.5250000000001,1229.035
12.7,109.0162499999999,5.818750000000023,0.1812500000000909,433.01,229.92000000000007,162.75374999999983,4.350000000000023,741.5887499999999,476.1500000000001,1314.285
12.8,121.2662499999999,6.443750000000023,0.1812500000000909,489.01,252.79500000000007,178.25374999999983,4.725000000000023,839.5887499999999,525.4000000000001,1392.91
12.9,134.0162499999999,7.193750000000023,0.1812500000000909,546.51,276.0450000000001,193.87874999999983,5.100000000000023,940.33875,574.5250000000001,1463.66
13.0,147.0162499999999,7.818750000000023,0.1812500000000909,604.01,299.5450000000001,209.62874999999983,5.475000000000023,1041.21375,622.9000000000001,1526.535
13.1,160.7662499999999,8.693750000000023,0.1812500000000909,662.135,323.5450000000001,225.62874999999983,5.850000000000023,1142.83875,670.9000000000001,1583.66
13.2,175.0162499999999,9.568750000000025,0.1812500000000909,719.885,347.5450000000001,241.62874999999983,6.100000000000023,1242.83875,718.0250000000001,1634.785
13.3,189.5162499999999,10.318750000000025,0.1812500000000909,775.885,371.4200000000001,257.25374999999985,6.350000000000023,1338.96375,763.5250000000001,1680.535
13.4,204.6412499999999,11.193750000000025,0.1812500000000909,830.885,395.6700000000001,273.00374999999985,6.350000000000023,1432.21375,808.0250000000001,1723.035
13.5,220.1412499999999,12.068750000000025,0.3062500000000909,883.885,419.7950000000001,288.50374999999985,6.725000000000023,1520.58875,851.2750000000001,1762.16
13.6,235.8912499999999,12.943750000000025,0.1812500000000909,934.135,443.6700000000001,303.50374999999985,7.100000000000023,1602.46375,892.6500000000001,1798.035
13.7,252.1412499999999,13.818750000000025,0.3062500000000909,982.51,467.6700000000001,318.37874999999985,7.600000000000023,1679.21375,932.775,1831.16
13.8,268.6412499999999,14.693750000000025,0.3062500000000909,1028.26,491.5450000000001,333.00374999999985,7.850000000000023,1749.83875,971.275,1861.535
13.9,285.3912499999999,15.818750000000025,0.3062500000000909,1070.885,514.6700000000001,347.00374999999985,7.850000000000023,1813.83875,1007.65,1888.91
14.0,302.5162499999999,16.693750000000023,0.3062500000000909,1111.26,537.5450000000001,360.7537499999999,8.225000000000023,1872.58875,1042.9,1914.16
14.1,319.6412499999999,17.693750000000023,0.3062500000000909,1148.76,559.7950000000001,374.0037499999999,8.600000000000023,1925.33875,1076.025,1936.91
14.2,337.2662499999999,18.693750000000023,0.4312500000000909,1184.01,581.6700000000001,387.0037499999999,8.850000000000023,1973.58875,1108.025,1957.785
14.3,355.1412499999999,19.818750000000023,0.4312500000000909,1216.885,602.9200000000001,399.5037499999999,8.975000000000023,2016.96375,1138.4,1977.16
14.4,372.7662499999999,20.818750000000023,0.4312500000000909,1247.135,623.4200000000001,411.5037499999999,9.225000000000025,2055.83875,1167.025,1995.035
14.5,390.8912499999999,21.943750000000023,0.4312500000000909,1275.385,643.5450000000001,423.2537499999999,9.475000000000025,2091.33875,1194.525,2011.785
14.6,409.1412499999999,22.943750000000023,0.4312500000000909,1301.76,662.9200000000001,434.3787499999999,9.725000000000025,2123.33875,1220.525,2027.41
14.7,427.1412499999999,24.193750000000023,0.556250000000091,1325.885,681.5450000000001,445.0037499999999,9.975000000000025,2152.08875,1245.025,2041.91
14.8,445.5162499999999,25.193750000000023,0.556250000000091,1348.51,699.4200000000001,455.3787499999999,10.100000000000025,2178.33875,1268.65,2055.41
14.9,463.8912499999999,26.318750000000023,0.556250000000091,1369.385,716.6700000000001,465.2537499999999,10.100000000000025,2202.08875,1290.9,2068.035
15.0,482.1412499999999,27.443750000000023,0.556250000000091,1388.76,732.9200000000001,474.5037499999999,10.600000000000025,2223.58875,1311.9,2079.785
15.1,500.5162499999999,28.693750000000023,0.556250000000091,1406.76,748.7950000000001,483.6287499999999,10.975000000000025,2243.21375,1331.9,2090.535
15.2,519.0162499999999,29.818750000000023,0.556250000000091,1423.635,764.0450000000001,492.1287499999999,10.975000000000025,2261.08875,1351.025,2100.785
15.3,537.1412499999999,31.068750000000023,0.556250000000091,1439.01,778.2950000000001,500.1287499999999,11.225000000000025,2277.33875,1368.9,2110.16
15.4,555.5162499999999,32.19375000000002,0.681250000000091,1453.51,792.0450000000001,508.0037499999999,11.725000000000025,2292.33875,1386.15,2118.91
15.5,573.7662499999999,33.44375000000002,0.681250000000091,1467.01,805.1700000000001,515.2537499999999,11.600000000000025,2305.96375,1402.4,2127.285
15.6,591.6412499999999,34.56875000000002,0.681250000000091,1479.51,817.5450000000001,522.1287499999999,11.850000000000025,2318.46375,1417.65,2134.785
15.7,609.7662499999999,35.81875000000002,0.806250000000091,1491.26,829.4200000000001,528.7537499999999,12.100000000000025,2329.96375,1432.15,2142.035
15.8,627.6412499999999,37.06875000000002,0.806250000000091,1502.135,840.5450000000001,534.8787499999999,12.225000000000025,2340.58875,1446.15,2148.785
15.9,645.1412499999999,38.31875000000002,0.806250000000091,1512.26,851.1700000000001,540.7537499999999,12.475000000000025,2350.08875,1459.025,2155.035
16.0,662.7662499999999,39.69375000000002,0.806250000000091,1521.76,861.1700000000001,546.3787499999999,12.725000000000025,2359.08875,1471.525,2161.035
16.1,680.2662499999999,40.81875000000002,0.931250000000091,1530.76,870.6700000000001,551.5037499999999,12.850000000000025,2367.21375,1483.4,2166.535
16.2,697.3912499999999,42.06875000000002,0.931250000000091,1538.885,879.6700000000001,556.5037499999999,12.975000000000025,2374.71375,1494.525,2171.66
16.3,714.3912499999999,43.31875000000002,0.931250000000091,1546.76,888.0450000000001,561.1287499999999,13.225000000000025,2381.71375,1505.15,2176.535
16.4,731.2662499999999,44.81875000000002,0.931250000000091,1554.01,896.0450000000001,565.5037499999999,13.225000000000025,2388.08875,1515.275,2181.16
16.5,747.6412499999999,45.94375000000002,1.056250000000091,1560.885,903.545,569.5037499999999,13.350000000000025,2393.96375,1524.775,2185.41
16.6,764.1412499999999,47.31875000000002,1.056250000000091,1567.26,910.545,573.2537499999999,13.600000000000025,2399.46375,1533.9,2189.41
16.7,780.3912499999999,48.56875000000002,1.056250000000091,1573.135,917.17,576.8787499999999,13.975000000000025,2404.58875,1542.65,2193.285
16.8,796.0162499999999,49.81875000000002,1.181250000000091,1578.76,923.17,580.2537499999999,13.975000000000025,2409.21375,1550.775,2196.91
16.9,811.7662499999999,51.19375000000002,1.181250000000091,1584.01,928.92,583.3787499999999,14.350000000000025,2413.58875,1558.525,2200.285
17.0,827.2662499999999,52.56875000000002,1.181250000000091,1588.885,934.42,586.3787499999999,14.475000000000025,2417.71375,1566.025,2203.535
17.1,842.2662499999999,53.94375000000002,1.181250000000091,1593.51,939.295,589.0037499999999,14.475000000000025,2421.46375,1573.025,2206.535
17.2,857.2662499999999,55.19375000000002,1.306250000000091,1597.76,943.92,591.5037499999999,14.725000000000025,2424.96375,1579.65,2209.285
17.3,871.6412499999999,56.56875000000002,1.431250000000091,1601.635,948.295,593.8787499999999,14.725000000000025,2428.08875,1586.025,2211.91
17.4,886.0162499999999,57.81875000000002,1.306250000000091,1605.385,952.17,595.8787499999999,14.850000000000025,2431.08875,1592.15,2214.41
17.5,900.2662499999999,59.31875000000002,1.431250000000091,1608.885,955.795,597.7537499999999,14.975000000000025,2433.83875,1597.775,2216.66
17.6,913.76625,60.56875000000002,1.431250000000091,1612.135,959.295,599.1287499999999,14.850000000000025,2436.46375,1603.275,2218.785
17.7,927.39125,61.81875000000002,1.431250000000091,1615.135,962.295,600.1287499999999,14.850000000000025,2438.71375,1608.4,2220.785
17.8,940.64125,63.31875000000002,1.556250000000091,1618.01,965.17,601.0037499999999,14.600000000000025,2440.96375,1613.4,2222.66
17.9,953.51625,64.56875000000002,1.556250000000091,1620.635,967.67,601.7537499999999,14.600000000000025,2442.96375,1618.15,2224.285
18.0,966.14125,65.94375000000002,1.556250000000091,1623.01,969.92,602.2537499999999,14.475000000000025,2444.83875,1622.525,2225.91
18.1,978.64125,67.31875000000002,1.556250000000091,1625.26,972.045,602.8787499999999,14.350000000000025,2446.58875,1626.9,2227.41
18.2,990.51625,68.69375000000002,1.681250000000091,1627.385,973.795,603.2537499999999,14.225000000000025,2448.21375,1630.9,2228.785
18.3,1002.39125,70.06875000000002,1.681250000000091,1629.26,975.42,603.5037499999999,14.225000000000025,2449.71375,1634.775,2230.035
18.4,1013.89125,71.44375000000002,1.806250000000091,1631.135,976.795,603.7537499999999,14.225000000000025,2451.08875,1638.4,2231.16
18.5,1025.01625,72.81875000000002,1.806250000000091,1632.635,978.045,604.0037499999999,13.975000000000025,2452.21375,1641.775,2232.285
18.6,1036.01625,74.19375000000002,1.806250000000091,1634.135,978.92,604.0037499999999,13.850000000000025,2453.46375,1645.025,2233.285
18.7,1046.76625,75.44375000000002,1.806250000000091,1635.385,979.795,604.0037499999999,13.850000000000025,2454.46375,1648.275,2234.16
18.8,1057.01625,76.81875000000002,1.931250000000091,1636.635,980.295,603.8787499999999,13.850000000000025,2455.46375,1651.025,2234.91
18.9,1067.14125,78.19375000000002,1.931250000000091,1637.635,980.795,603.7537499999999,13.725000000000025,2456.33875,1653.9,2235.66
19.0,1077.01625,79.56875000000002,1.931250000000091,1638.635,981.045,603.5037499999999,13.600000000000025,2457.08875,1656.525,2236.285
19.1,1086.64125,80.94375000000002,1.931250000000091,1639.51,981.17,603.1287499999999,13.600000000000025,2457.83875,1659.025,2236.785
19.2,1095.89125,82.19375000000002,2.056250000000091,1640.26,981.045,602.8787499999999,13.475000000000025,2458.46375,1661.525,2237.41
19.3,1105.01625,83.69375000000002,2.056250000000091,1640.885,980.92,602.3787499999999,13.350000000000025,2458.96375,1663.775,2237.785
19.4,1113.76625,85.06875000000002,2.056250000000091,1641.26,980.67,601.8787499999999,13.350000000000025,2459.58875,1665.9,2238.285
19.5,1122.39125,86.31875000000002,2.181250000000091,1641.76,980.17,601.3787499999999,13.600000000000025,2459.96375,1667.9,2238.535
19.6,1130.64125,87.69375000000002,2.181250000000091,1642.01,979.545,600.7537499999999,13.225000000000025,2460.33875,1669.775,2238.785
19.7,1138.51625,88.94375000000002,2.306250000000091,1642.26,978.795,600.0037499999999,13.475000000000025,2460.58875,1671.65,2239.035
19.8,1146.51625,90.31875000000002,2.181250000000091,1642.51,977.92,599.1287499999999,13.100000000000025,2460.83875,1673.275,2239.16
19.9,1154.01625,91.69375000000002,2.306250000000091,1642.51,976.92,598.3787499999999,12.975000000000025,2461.21375,1674.9,2239.285
20.0,1161.39125,93.06875000000002,2.306250000000091,1642.51,975.92,597.5037499999999,13.100000000000025,2461.21375,1676.4,2239.41
20.1,1168.51625,94.31875000000002,2.306250000000091,1642.51,974.67,596.6287499999999,12.975000000000025,2461.33875,1677.775,2239.41
20.2,1175.39125,95.56875000000002,2.306250000000091,1642.26,973.42,595.6287499999999,12.850000000000025,2461.46375,1679.15,2239.285
20.3,1182.01625,96.81875000000002,2.431250000000091,1642.135,971.92,594.6287499999999,12.600000000000025,2461.46375,1680.275,2239.16
20.4,1188.51625,98.19375000000002,2.306250000000091,1641.76,970.42,593.5037499999999,12.600000000000025,2461.46375,1681.525,2239.035
20.5,1194.76625,99.56875000000002,2.431250000000091,1641.51,968.795,592.3787499999999,12.725000000000025,2461.33875,1682.525,2238.91
20.6,1200.76625,100.81875000000002,2.431250000000091,1641.01,967.17,591.2537499999999,12.600000000000025,2461.21375,1683.525,2238.66
20.7,1206.64125,102.06875000000002,2.556250000000091,1640.51,965.295,590.0037499999999,12.600000000000025,2461.08875,1684.525,2238.41
20.8,1212.26625,103.31875000000002,2.556250000000091,1640.01,963.42,588.6287499999999,12.600000000000025,2460.96375,1685.4,2238.16
20.9,1217.64125,104.56875000000002,2.556250000000091,1639.385,961.42,587.2537499999999,12.725000000000025,2460.71375,1686.15,2237.785
21.0,1223.01625,105.81875000000002,2.681250000000091,1638.76,959.295,585.8787499999999,12.475000000000025,2460.46375,1686.9,2237.285
21.1,1228.01625,106.94375000000002,2.681250000000091,1638.01,957.17,584.5037499999999,12.350000000000025,2460.21375,1687.65,2236.785
21.2,1232.89125,108.31875000000002,2.681250000000091,1637.135,954.795,583.0037499999999,12.475000000000025,2459.83875,1688.15,2236.285
21.3,1237.64125,109.56875000000002,2.681250000000091,1636.385,952.545,581.5037499999999,12.350000000000025,2459.46375,1688.775,2235.66
21.4,1242.14125,110.81875000000002,2.681250000000091,1635.51,950.045,580.2537499999999,12.100000000000025,2459.08875,1689.275,2235.16
21.5,1246.64125,111.94375000000002,2.806250000000091,1634.51,947.545,579.1287499999999,12.350000000000025,2458.71375,1689.775,2234.535
21.6,1250.76625,113.31875000000002,2.806250000000091,1633.635,945.045,578.1287499999999,12.350000000000025,2458.33875,1690.15,2233.91
21.7,1254.76625,114.44375000000002,2.931250000000091,1632.635,942.545,577.1287499999999,12.850000000000025,2457.83875,1690.4,2233.16
21.8,1258.76625,115.69375000000002,2.931250000000091,1631.51,939.795,575.6287499999999,12.850000000000025,2457.33875,1690.775,2232.41
21.9,1262.51625,116.81875000000002,2.931250000000091,1630.385,937.045,573.8787499999999,12.475000000000025,2456.83875,1691.025,2231.66
22.0,1266.01625,118.06875000000002,3.056250000000091,1629.26,934.42,572.1287499999999,12.600000000000025,2456.21375,1691.15,2230.91
22.1,1269.51625,119.31875000000002,3.056250000000091,1628.135,931.545,570.1287499999999,12.350000000000025,2455.71375,1691.4,2230.16
22.2,1272.89125,120.31875000000002,3.056250000000091,1626.885,928.67,568.2537499999999,12.475000000000025,2455.08875,1691.525,2229.285
22.3,1276.01625,121.56875000000002,3.056250000000091,1625.76,925.795,566.5037499999999,12.350000000000025,2454.46375,1691.525,2228.535
22.4,1279.14125,122.69375000000002,3.181250000000091,1624.385,922.795,565.1287499999999,12.475000000000025,2453.83875,1691.525,2227.66
22.5,1282.01625,123.94375000000002,3.056250000000091,1623.135,919.795,563.8787499999999,12.475000000000025,2453.21375,1691.525,2226.66
22.6,1284.76625,125.06875000000002,3.181250000000091,1621.76,916.795,562.7537499999999,12.475000000000025,2452.58875,1691.4,2225.91
22.7,1287.51625,126.19375000000002,3.181250000000091,1620.385,913.67,561.5037499999999,12.975000000000025,2451.83875,1691.275,2224.91
22.8,1290.01625,127.31875000000002,3.181250000000091,1619.01,910.67,560.1287499999999,13.225000000000025,2451.08875,1691.15,2224.035
22.9,1292.51625,128.31875000000002,3.181250000000091,1617.51,907.545,558.3787499999999,12.850000000000025,2450.33875,1691.025,2223.035
23.0,1294.76625,129.44375000000002,3.306250000000091,1616.01,904.295,556.2537499999999,12.975000000000025,2449.71375,1690.9,2222.035
23.1,1297.01625,130.56875000000002,3.306250000000091,1614.51,901.045,554.1287499999999,12.850000000000025,2448.83875,1690.525,2221.035
