time(s),F1,F2,F3,F4,F5,F6,F7,F8,F9,F10
10.0,0.9512500000000728,1.7162499999999454,0.4600000000000364,-7.037499999999909,-6.282500000000027,-6.242499999999836,-0.2137500000000045,-4.592499999999973,-3.2049999999999272,-8.967499999999973
10.1,0.9512500000000728,1.8412499999999452,0.3350000000000364,-7.412499999999909,-6.407500000000027,-6.367499999999836,-0.0887500000000045,-4.717499999999973,-3.0799999999999272,-9.092499999999973
10.2,0.9512500000000728,1.9662499999999452,0.2100000000000363,-7.537499999999909,-6.407500000000027,-6.492499999999836,-0.0887500000000045,-4.967499999999973,-3.0799999999999272,-9.217499999999973
10.3,0.9512500000000728,1.8412499999999452,0.0850000000000363,-7.912499999999909,-6.532500000000027,-6.492499999999836,-0.0887500000000045,-5.092499999999973,-2.9549999999999272,-9.217499999999973
10.4,0.9512500000000728,1.9662499999999452,0.0850000000000363,-8.162499999999909,-6.782500000000027,-6.617499999999836,-0.0887500000000045,-5.217499999999973,-2.9549999999999272,-9.342499999999973
10.5,0.9512500000000728,2.091249999999945,-0.0399999999999636,-8.412499999999909,-6.782500000000027,-6.617499999999836,-0.0887500000000045,-5.467499999999973,-2.8299999999999272,-9.217499999999973
10.6,0.9512500000000728,1.9662499999999452,-0.0399999999999636,-8.662499999999909,-6.782500000000027,-6.742499999999836,-0.2137500000000045,-5.592499999999973,-2.8299999999999272,-8.592499999999973
10.7,1.0762500000000728,2.091249999999945,-0.1649999999999636,-8.912499999999909,-6.907500000000027,-6.617499999999836,-0.0887500000000045,-5.717499999999973,-2.7049999999999272,-7.592499999999973
10.8,1.0762500000000728,2.091249999999945,-0.1649999999999636,-9.162499999999907,-6.782500000000027,-6.617499999999836,-0.0887500000000045,-5.842499999999973,-2.7049999999999272,-5.467499999999973
10.9,1.3262500000000728,2.216249999999945,-0.1649999999999636,-9.287499999999907,-6.532500000000027,-6.367499999999836,-0.0887500000000045,-5.842499999999973,-2.4549999999999272,-1.4674999999999727
11.0,1.5762500000000728,2.216249999999945,-0.1649999999999636,-8.912499999999909,-5.657500000000027,-5.867499999999836,0.0362499999999954,-5.467499999999973,-1.9549999999999272,5.282500000000027
11.1,2.2012500000000728,2.216249999999945,-0.2899999999999636,-8.037499999999909,-4.032500000000027,-4.867499999999836,0.0362499999999954,-4.592499999999973,-0.7049999999999272,15.157500000000027
11.2,2.9512500000000728,2.341249999999945,-0.2899999999999636,-5.787499999999909,-1.4075000000000273,-2.9924999999998363,0.2862499999999954,-2.9674999999999727,1.6700000000000728,29.032500000000027
11.3,4.201250000000073,2.341249999999945,-0.2899999999999636,-1.912499999999909,2.5924999999999727,-0.3674999999998363,0.2862499999999954,0.1575000000000272,6.045000000000073,47.40750000000003
11.4,5.826250000000073,2.341249999999945,-0.2899999999999636,4.212500000000091,8.217499999999973,3.382500000000164,0.5362499999999955,5.282500000000027,12.920000000000073,71.15750000000003
11.5,7.951250000000073,2.591249999999945,-0.4149999999999636,13.212500000000093,15.092499999999973,8.632500000000164,0.7862499999999955,13.282500000000027,23.170000000000076,101.90750000000004
11.6,10.576250000000073,2.716249999999945,-0.4149999999999636,25.58750000000009,23.092499999999973,15.132500000000164,0.6612499999999955,24.782500000000027,37.29500000000007,139.53250000000003
11.7,13.701250000000073,2.966249999999945,-0.4149999999999636,41.58750000000009,32.34249999999997,22.632500000000164,0.9112499999999956,40.28250000000003,55.17000000000007,184.03250000000003
11.8,17.576250000000073,3.216249999999945,-0.4149999999999636,61.71250000000009,42.84249999999997,31.257500000000164,1.1612499999999957,61.03250000000003,77.42000000000007,236.90750000000003
11.9,21.826250000000076,3.466249999999945,-0.4149999999999636,86.21250000000009,54.34249999999997,41.00750000000016,1.4112499999999957,87.53250000000003,103.67000000000009,298.1575
12.0,26.701250000000076,3.8412499999999454,-0.4149999999999636,114.46250000000008,66.96749999999997,51.63250000000016,1.4112499999999957,119.78250000000004,133.42000000000007,367.5325
12.1,32.20125000000007,4.216249999999945,-0.4149999999999636,147.5875000000001,80.71749999999997,63.25750000000016,1.7862499999999957,158.78250000000003,167.04500000000007,446.0325
12.2,38.20125000000007,4.716249999999945,-0.5399999999999636,184.8375000000001,95.34249999999996,75.63250000000016,2.1612499999999955,204.78250000000003,204.04500000000007,532.2825
12.3,44.82625000000007,5.091249999999945,-0.5399999999999636,225.5875000000001,110.84249999999996,88.38250000000016,2.5362499999999955,257.6575,243.42000000000007,622.9075
12.4,51.95125000000007,5.591249999999945,-0.5399999999999636,270.3375000000001,127.71749999999996,101.88250000000016,2.6612499999999955,318.1575,285.6700000000001,716.9075
12.5,59.70125000000007,6.091249999999945,-0.5399999999999636,318.3375000000001,145.34249999999997,115.88250000000016,3.1612499999999955,385.5325,329.6700000000001,811.2825
12.6,67.82625000000007,6.716249999999945,-0.5399999999999636,368.4625000000001,163.84249999999997,130.13250000000016,3.2862499999999955,458.6575,374.4200000000001,902.6575
12.7,76.70125000000007,7.216249999999945,-0.5399999999999636,421.2125000000001,183.2175,144.88250000000016,3.5362499999999955,538.5325,420.2950000000001,990.9075
12.8,85.95125000000007,7.841249999999945,-0.6649999999999636,475.8375000000001,203.2175,160.00750000000016,3.786249999999996,623.7825,466.4200000000001,1074.4075
12.9,95.70125000000009,8.466249999999945,-0.5399999999999636,531.0875000000001,223.7175,175.13250000000016,4.036249999999996,712.7825,512.0450000000001,1152.7825
13.0,106.07625000000009,9.091249999999944,-0.5399999999999636,587.7125000000001,244.8425,190.38250000000016,4.411249999999996,806.4075,557.9200000000001,1227.1575
13.1,116.95125000000009,9.716249999999944,-0.6649999999999636,644.4625000000001,266.7175,205.88250000000016,4.661249999999996,902.5325,603.4200000000001,1297.0325
13.2,128.07625000000007,10.341249999999944,-0.6649999999999636,700.0875000000001,288.8425,221.13250000000016,4.911249999999996,999.4075,648.1700000000001,1361.7825
13.3,139.82625000000007,11.216249999999944,-0.5399999999999636,755.4625000000001,311.4675,236.50750000000016,5.286249999999996,1097.4075,692.7950000000001,1422.2825
13.4,152.07625000000007,11.841249999999944,-0.6649999999999636,809.4625000000001,334.7175,252.00750000000016,5.411249999999996,1194.5325,736.6700000000001,1478.1575
13.5,164.82625000000007,12.591249999999944,-0.6649999999999636,861.3375000000001,357.7175,267.13250000000016,5.661249999999996,1288.5325,779.0450000000001,1528.7825
13.6,177.95125000000007,13.466249999999944,-0.6649999999999636,911.5875,381.0925,282.50750000000016,6.036249999999996,1380.5325,820.7950000000001,1575.9075
13.7,191.45125000000007,14.216249999999944,-0.6649999999999636,959.2125,404.2175,297.38250000000016,6.411249999999996,1467.5325,860.7950000000001,1618.7825
13.8,205.45125000000007,15.091249999999944,-0.6649999999999636,1005.0875,427.8425,312.38250000000016,6.786249999999996,1550.9075,899.7950000000001,1658.4075
13.9,219.95125000000007,15.841249999999944,-0.6649999999999636,1048.4625,451.0925,327.13250000000016,6.911249999999996,1629.0325,937.67,1695.2825
14.0,234.57625000000007,16.716249999999945,-0.5399999999999636,1088.9625,474.0925,341.50750000000016,7.036249999999996,1701.1575,973.67,1729.2825
14.1,249.70125000000007,17.591249999999945,-0.5399999999999636,1127.4625,497.0925,355.75750000000016,7.2862499999999955,1768.7825,1008.92,1761.4075
14.2,265.3262500000001,18.591249999999945,-0.5399999999999636,1163.5875,520.0925,369.75750000000016,7.5362499999999955,1831.0325,1042.92,1791.0325
14.3,280.9512500000001,19.466249999999945,-0.5399999999999636,1196.9625,542.5925,383.25750000000016,7.9112499999999955,1887.5325,1075.42,1818.5325
14.4,296.9512500000001,20.466249999999945,-0.5399999999999636,1228.4625,564.9675,396.50750000000016,8.161249999999995,1939.6575,1106.92,1844.2825
14.5,313.4512500000001,21.341249999999945,-0.5399999999999636,1257.7125,586.9675,409.38250000000016,8.411249999999995,1987.2825,1136.92,1868.2825
14.6,329.8262500000001,22.341249999999945,-0.5399999999999636,1284.5875,608.4675,421.63250000000016,8.786249999999995,2030.1575,1165.42,1890.4075
14.7,346.7012500000001,23.341249999999945,-0.5399999999999636,1309.9625,629.5925,433.75750000000016,8.911249999999995,2069.4075000000003,1192.795,1911.0325
14.8,363.7012500000001,24.341249999999945,-0.4149999999999636,1333.3375,650.2175,445.50750000000016,9.161249999999995,2105.1575000000003,1219.045,1930.4075
14.9,380.8262500000001,25.341249999999945,-0.4149999999999636,1354.9625,669.9675,456.63250000000016,9.411249999999995,2137.1575000000003,1243.67,1948.0325
15.0,398.2012500000001,26.466249999999945,-0.4149999999999636,1375.0875,689.4675,467.50750000000016,9.661249999999995,2166.5325000000003,1267.42,1964.6575
15.1,415.7012500000001,27.591249999999945,-0.4149999999999636,1393.9625,708.0925,478.00750000000016,9.911249999999995,2193.1575000000003,1290.17,1980.1575
15.2,433.0762500000001,28.716249999999945,-0.4149999999999636,1411.3375,726.0925,488.00750000000016,10.286249999999995,2217.1575000000003,1311.545,1994.6575
15.3,450.8262500000001,29.716249999999945,-0.4149999999999636,1427.5875,743.4675,497.75750000000016,10.286249999999995,2239.4075000000003,1332.17,2008.4075
15.4,468.7012500000001,30.841249999999945,-0.2899999999999636,1442.7125,760.2175,507.00750000000016,10.536249999999995,2259.6575000000003,1351.795,2021.1575
15.5,486.3262500000001,31.966249999999945,-0.2899999999999636,1456.5875,776.2175,515.8825000000002,10.911249999999995,2277.9075000000003,1370.295,2032.9075
15.6,504.0762500000001,33.091249999999945,-0.2899999999999636,1469.8375,791.7175,524.3825000000002,11.036249999999995,2294.7825000000003,1388.17,2044.1575
15.7,521.9512500000001,34.341249999999945,-0.1649999999999636,1482.0875,806.5925,532.6325000000002,11.161249999999995,2310.4075000000003,1405.045,2054.7825000000003
15.8,539.7012500000001,35.341249999999945,-0.1649999999999636,1493.4625,820.7175,540.3825000000002,11.411249999999995,2324.4075000000003,1420.92,2064.6575000000003
15.9,557.5762500000001,36.591249999999945,-0.0399999999999636,1504.2125,834.3425,547.6325000000002,11.786249999999995,2337.5325000000003,1436.295,2074.1575000000003
16.0,575.3262500000001,37.716249999999945,-0.0399999999999636,1514.2125,847.3425,554.7575000000002,11.786249999999995,2349.4075000000003,1450.92,2083.1575000000003
16.1,592.9512500000001,38.966249999999945,-0.0399999999999636,1523.4625,859.5925,561.3825000000002,12.161249999999995,2360.4075000000003,1464.795,2091.4075000000003
16.2,610.5762500000001,40.091249999999945,0.0850000000000363,1532.3375,871.4675,567.8825000000002,12.286249999999995,2370.5325000000003,1477.92,2099.1575000000003
16.3,628.0762500000001,41.341249999999945,0.0850000000000363,1540.4625,882.7175,574.0075000000002,12.411249999999995,2379.9075000000003,1490.545,2106.5325000000003
16.4,645.3262500000001,42.591249999999945,0.0850000000000363,1548.0875,893.3425,579.6325000000002,12.661249999999995,2388.4075000000003,1502.545,2113.4075000000003
16.5,662.5762500000001,43.841249999999945,0.0850000000000363,1555.3375,903.4675,585.1325000000002,13.161249999999995,2396.4075000000003,1513.92,2120.0325000000003
16.6,679.8262500000001,45.091249999999945,0.2100000000000363,1562.0875,912.9675,590.2575000000002,13.161249999999995,2403.7825000000003,1524.795,2126.2825000000003
16.7,696.5762500000001,46.341249999999945,0.2100000000000363,1568.3375,921.9675,595.2575000000002,13.286249999999995,2410.5325000000003,1535.045,2132.1575000000003
16.8,713.5762500000001,47.591249999999945,0.2100000000000363,1574.3375,930.5925,599.7575000000002,13.536249999999995,2416.7825000000003,1544.795,2137.7825000000003
16.9,730.0762500000001,48.966249999999945,0.3350000000000364,1579.8375,938.7175,604.0075000000002,13.661249999999995,2422.5325000000003,1554.045,2143.0325000000003
17.0,746.5762500000001,50.216249999999945,0.3350000000000364,1585.0875,946.4675,608.1325000000002,13.786249999999995,2427.9075000000003,1562.92,2148.0325000000003
17.1,762.8262500000001,51.591249999999945,0.3350000000000364,1589.9625,953.7175,612.1325000000002,14.036249999999995,2433.0325000000003,1571.42,2152.7825000000003
17.2,778.8262500000001,52.841249999999945,0.4600000000000364,1594.5875,960.4675,615.6325000000002,14.161249999999995,2437.6575000000003,1579.42,2157.2825000000003
17.3,794.7012500000001,54.091249999999945,0.4600000000000364,1598.8375,966.9675,619.0075000000002,14.161249999999995,2442.0325000000003,1587.17,2161.5325000000003
17.4,810.4512500000001,55.341249999999945,0.4600000000000364,1602.8375,973.0925,622.1325000000002,14.536249999999995,2446.0325000000003,1594.42,2165.5325000000003
17.5,825.7012500000001,56.841249999999945,0.4600000000000364,1606.5875,978.5925,625.0075000000002,14.661249999999995,2449.7825000000003,1601.295,2169.4075000000003
17.6,840.8262500000001,58.091249999999945,0.5850000000000364,1610.2125,983.8425,627.7575000000002,14.786249999999995,2453.2825000000003,1608.045,2173.1575000000003
17.7,855.8262500000001,59.591249999999945,0.7100000000000364,1613.4625,988.8425,630.3825000000002,15.036249999999995,2456.4075000000003,1614.295,2176.5325000000003
17.8,870.3262500000001,60.841249999999945,0.5850000000000364,1616.4625,993.4675,632.7575000000002,15.161249999999995,2459.5325000000003,1620.295,2179.7825000000003
17.9,884.8262500000001,62.216249999999945,0.7100000000000364,1619.3375,997.7175,634.8825000000002,15.286249999999995,2462.2825000000003,1626.045,2182.7825000000003
18.0,898.9512500000001,63.466249999999945,0.7100000000000364,1622.0875,1001.5925,636.8825000000002,15.411249999999995,2464.7825000000003,1631.545,2185.6575000000003
18.1,912.70125,64.96624999999995,0.7100000000000364,1624.5875,1005.2175,638.7575000000002,15.536249999999995,2467.2825000000003,1636.67,2188.4075000000003
18.2,926.45125,66.34124999999995,0.8350000000000364,1626.8375,1008.5925,640.3825000000002,15.661249999999995,2469.5325000000003,1641.67,2190.9075000000003
18.3,939.82625,67.59124999999995,0.8350000000000364,1628.9625,1011.5925,641.8825000000002,15.786249999999995,2471.6575000000003,1646.42,2193.2825000000003
18.4,952.82625,68.96624999999995,0.9600000000000364,1630.8375,1014.4675,643.1325000000002,16.036249999999995,2473.5325000000003,1650.795,2195.5325000000003
18.5,965.70125,70.34124999999995,0.9600000000000364,1632.7125,1016.9675,644.5075000000002,16.161249999999995,2475.4075000000003,1655.17,2197.6575000000003
18.6,978.32625,71.84124999999995,0.9600000000000364,1634.2125,1019.2175,645.5075000000002,16.411249999999995,2477.0325000000003,1659.17,2199.6575000000003
18.7,990.45125,73.21624999999995,0.9600000000000364,1635.8375,1021.2175,646.3825000000002,16.411249999999995,2478.5325000000003,1663.045,2201.4075000000003
18.8,1002.57625,74.46624999999995,1.0850000000000364,1637.2125,1022.9675,647.1325000000002,16.661249999999995,2480.0325000000003,1666.795,2203.1575000000003
18.9,1014.20125,75.96624999999995,1.0850000000000364,1638.4625,1024.4675,647.7575000000002,16.786249999999995,2481.2825000000003,1670.295,2204.7825000000003
19.0,1025.70125,77.21624999999995,1.2100000000000364,1639.5875,1025.8425,648.3825000000002,16.911249999999995,2482.5325000000003,1673.67,2206.2825000000003
19.1,1036.82625,78.59124999999995,1.2100000000000364,1640.5875,1026.8425,648.6325000000002,17.161249999999995,2483.5325000000003,1676.795,2207.6575000000003
19.2,1047.82625,79.96624999999995,1.2100000000000364,1641.4625,1027.8425,648.8825000000002,17.036249999999995,2484.6575000000003,1679.795,2209.0325000000003
19.3,1058.32625,81.21624999999995,1.2100000000000364,1642.2125,1028.4675,649.1325000000002,17.161249999999995,2485.5325000000003,1682.67,2210.2825000000003
19.4,1068.82625,82.84124999999995,1.3350000000000364,1642.8375,1029.0925,649.1325000000002,17.411249999999995,2486.2825000000003,1685.42,2211.5325000000003
19.5,1078.95125,84.21624999999995,1.3350000000000364,1643.4625,1029.3425,649.1325000000002,17.536249999999995,2487.0325000000003,1688.045,2212.5325000000003
19.6,1088.70125,85.59124999999995,1.4600000000000364,1643.8375,1029.7175,649.0075000000002,17.661249999999995,2487.7825000000003,1690.42,2213.4075000000003
19.7,1098.32625,86.96624999999995,1.4600000000000364,1644.3375,1029.7175,648.7575000000002,17.661249999999995,2488.4075000000003,1692.795,2214.4075000000003
19.8,1107.70125,88.21624999999995,1.4600000000000364,1644.5875,1029.8425,648.5075000000002,17.786249999999995,2488.9075000000003,1694.92,2215.1575000000003
19.9,1116.70125,89.59124999999995,1.5850000000000364,1644.7125,1029.5925,648.0075000000002,17.786249999999995,2489.4075000000003,1697.045,2215.9075000000003
20.0,1125.57625,90.96624999999996,1.5850000000000364,1644.8375,1029.2175,647.6325000000002,17.911249999999995,2489.9075000000003,1699.045,2216.5325000000003
20.1,1134.07625,92.34124999999996,1.7100000000000364,1644.9625,1028.7175,647.1325000000002,17.911249999999995,2490.1575000000003,1700.92,2217.0325000000003
20.2,1142.45125,93.71624999999996,1.7100000000000364,1644.8375,1028.0925,646.5075000000002,18.411249999999995,2490.5325000000003,1702.67,2217.5325000000003
20.3,1150.57625,94.96624999999996,1.7100000000000364,1644.8375,1027.3425,645.8825000000002,18.411249999999995,2490.7825000000003,1704.295,2217.9075000000003
20.4,1158.32625,96.21624999999996,1.8350000000000364,1644.5875,1026.4675,645.1325000000002,18.411249999999995,2491.0325000000003,1705.795,2218.2825000000003
20.5,1165.95125,97.59124999999996,1.8350000000000364,1644.3375,1025.3425,644.3825000000002,18.536249999999995,2491.1575000000003,1707.295,2218.5325000000003
20.6,1173.45125,99.09124999999996,1.9600000000000364,1644.0875,1024.2175,643.5075000000002,18.786249999999995,2491.1575000000003,1708.67,2218.7825000000003
20.7,1180.57625,100.34124999999996,1.9600000000000364,1643.7125,1022.9675,642.6325000000002,18.786249999999995,2491.2825000000003,1709.92,2218.9075000000003
20.8,1187.57625,101.71624999999996,2.0850000000000364,1643.2125,1021.5925,641.6325000000002,18.661249999999995,2491.2825000000003,1711.045,2219.0325000000003
20.9,1194.20125,103.09124999999996,2.0850000000000364,1642.7125,1020.2175,640.6325000000002,18.911249999999995,2491.2825000000003,1712.295,2219.1575000000003
21.0,1200.70125,104.34124999999996,2.0850000000000364,1642.2125,1018.7175,639.6325000000002,18.911249999999995,2491.1575000000003,1713.295,2219.1575000000003
21.1,1207.07625,105.59124999999996,2.2100000000000364,1641.5875,1017.0925,638.3825000000002,18.911249999999995,2491.1575000000003,1714.295,2219.1575000000003
21.2,1213.32625,106.96624999999996,2.2100000000000364,1640.9625,1015.4675,637.2575000000002,19.036249999999995,2491.0325000000003,1715.17,2219.1575000000003
21.3,1219.20125,108.21624999999996,2.2100000000000364,1640.2125,1013.5925,636.0075000000002,19.161249999999995,2490.7825000000003,1715.92,2219.0325000000003
21.4,1224.95125,109.46624999999996,2.3350000000000364,1639.4625,1011.5925,634.6325000000002,19.286249999999995,2490.6575000000003,1716.795,2218.7825000000003
21.5,1230.45125,110.71624999999996,2.3350000000000364,1638.5875,1009.7175,633.2575000000002,19.286249999999995,2490.4075000000003,1717.545,2218.7825000000003
21.6,1235.82625,112.09124999999996,2.3350000000000364,1637.8375,1007.5925,631.8825000000002,19.286249999999995,2490.1575000000003,1718.17,2218.5325000000003
21.7,1241.07625,113.34124999999996,2.4600000000000364,1636.8375,1005.4675,630.5075000000002,19.536249999999995,2489.7825000000003,1718.795,2218.2825000000003
21.8,1246.07625,114.59124999999996,2.4600000000000364,1635.8375,1003.3425,629.0075000000002,19.536249999999995,2489.5325000000003,1719.295,2217.9075000000003
21.9,1250.82625,115.84124999999996,2.4600000000000364,1634.9625,1001.0925,627.5075000000002,19.661249999999995,2489.1575000000003,1719.795,2217.6575000000003
